AeroDyn airfoil file.  Compatible with AeroDyn v13.0.
Interpolated thickness: 0.304

  1        Number of airfoil tables in this file
  9990     Reynolds number in millions.  For efficiency, make very large if only one table.
  0        Control setting
  10.8139  Stall angle (deg)
  -3.55825 Zero lift angle of attack (deg)
  5.9464   Cn slope for zero lift (dimensionless)
  1.4916   Cn at stall value for positive angle of attack
  -0.8     Cn at stall value for negative angle of attack
  -2.12    Angle of attack for minimum CD (deg)
  0.0390895 Minimum CD value
  -180.00  0.00001  0.13103  -0.00001
  -170.00  0.36083  0.16867  0.36631
  -160.00  0.72257  0.27665  -0.13115
  -150.00  0.64930  0.44167  -0.05770
  -140.00  0.60260  0.64305  -0.00651
  -130.00  0.53941  0.85579  0.04303
  -120.00  0.44233  1.05287  0.09221
  -110.00  0.31321  1.20929  0.13782
  -100.00  0.16027  1.30480  0.17518
   -90.00  0.00001  1.32623  0.19973
   -80.00  -0.16025  1.30480  0.21786
   -70.00  -0.31319  1.20929  0.22115
   -60.00  -0.44232  1.05287  0.21264
   -50.00  -0.53939  0.85579  0.19780
   -40.00  -0.60258  0.64305  0.18571
   -30.00  -0.64929  0.44167  0.19295
   -20.00  -0.72072  0.27646  0.26328
   -10.00  -0.29488  0.12655  0.11639
    -4.17  -0.06593  0.03927  -0.12327
    -3.17  0.03847  0.03918  -0.12511
    -2.12  0.14653  0.03909  -0.12657
    -1.08  0.25551  0.03909  -0.12822
    -0.05  0.36358  0.03918  -0.12913
    -0.04  0.36383  0.03918  -0.12914
     1.17  0.49149  0.03938  -0.13031
     2.34  0.61172  0.03954  -0.13132
     3.51  0.73235  0.03985  -0.13201
     4.69  0.84918  0.04011  -0.13183
     5.86  0.96228  0.04045  -0.13101
     7.03  1.06951  0.04103  -0.12905
     8.20  1.15757  0.04165  -0.12364
    10.81  1.19758  0.05326  -0.09609
    13.43  1.04816  0.13431  -0.08875
    16.04  1.01215  0.18449  -0.09654
    18.65  1.03525  0.23447  -0.10865
    21.26  1.02950  0.29721  -0.12838
    23.88  0.99876  0.34045  -0.15344
    26.49  0.96801  0.38369  -0.17850
    29.10  0.93727  0.42693  -0.20356
    31.71  0.91544  0.47633  -0.22200
    34.33  0.89822  0.52892  -0.23702
    36.94  0.88100  0.58151  -0.25204
    39.55  0.86378  0.63409  -0.26706
    42.16  0.84121  0.68914  -0.27993
    44.78  0.81754  0.74469  -0.29237
    47.39  0.79386  0.80024  -0.30480
    50.00  0.77019  0.85579  -0.31724
    60.00  0.63190  1.05287  -0.35964
    70.00  0.44691  1.20929  -0.39655
    80.00  0.22896  1.30480  -0.42686
    90.00  0.00001  1.32623  -0.44865
   100.00  -0.16025  1.30480  -0.46669
   110.00  -0.31319  1.20929  -0.47008
   120.00  -0.44232  1.05287  -0.46147
   130.00  -0.53939  0.85579  -0.44673
   140.00  -0.60258  0.64305  -0.43455
   150.00  -0.64929  0.44167  -0.44179
   160.00  -0.72255  0.27665  -0.51285
   170.00  -0.36081  0.16867  -0.45790
   180.00  0.00001  0.13103  -0.00001
EOT
