AeroDyn airfoil file.  Compatible with AeroDyn v13.0.
Interpolated thickness: 0.335

  1        Number of airfoil tables in this file
  9990     Reynolds number in millions.  For efficiency, make very large if only one table.
  0        Control setting
  10.8055  Stall angle (deg)
  -3.5417  Zero lift angle of attack (deg)
  5.70607  Cn slope for zero lift (dimensionless)
  1.42883  Cn at stall value for positive angle of attack
  -0.8     Cn at stall value for negative angle of attack
  -2.12    Angle of attack for minimum CD (deg)
  0.0529375 Minimum CD value
  -180.00  0.00001  0.14079  -0.00001
  -170.00  0.34476  0.17675  0.34999
  -160.00  0.69039  0.27991  -0.12531
  -150.00  0.62039  0.43759  -0.05514
  -140.00  0.57576  0.63000  -0.00623
  -130.00  0.51539  0.83326  0.04111
  -120.00  0.42264  1.02156  0.08810
  -110.00  0.29926  1.17101  0.13167
  -100.00  0.15314  1.26228  0.16738
   -90.00  0.00001  1.28275  0.19082
   -80.00  -0.15311  1.26228  0.20815
   -70.00  -0.29924  1.17101  0.21130
   -60.00  -0.42261  1.02156  0.20316
   -50.00  -0.51536  0.83326  0.18899
   -40.00  -0.57574  0.63000  0.17744
   -30.00  -0.62036  0.43759  0.18435
   -20.00  -0.68861  0.27974  0.25155
   -10.00  -0.28174  0.13650  0.11120
    -4.17  -0.06299  0.05311  -0.11779
    -3.17  0.03676  0.05303  -0.11954
    -2.12  0.14001  0.05294  -0.12094
    -1.08  0.24414  0.05294  -0.12251
    -0.05  0.34739  0.05303  -0.12339
    -0.04  0.34763  0.05303  -0.12339
     1.17  0.46960  0.05322  -0.12451
     2.34  0.58448  0.05337  -0.12547
     3.51  0.69973  0.05367  -0.12613
     4.68  0.81136  0.05392  -0.12597
     5.85  0.91942  0.05424  -0.12518
     7.02  1.02188  0.05479  -0.12331
     8.19  1.10601  0.05539  -0.11814
    10.81  1.14425  0.06647  -0.09182
    13.42  1.00148  0.14392  -0.08480
    16.03  0.96707  0.19186  -0.09225
    18.64  0.98914  0.23962  -0.10382
    21.26  0.98365  0.29957  -0.12267
    23.87  0.95428  0.34088  -0.14661
    26.48  0.92490  0.38219  -0.17056
    29.10  0.89552  0.42351  -0.19450
    31.71  0.87467  0.47071  -0.21212
    34.32  0.85822  0.52095  -0.22647
    36.94  0.84177  0.57119  -0.24082
    39.55  0.82532  0.62144  -0.25517
    42.16  0.80375  0.67403  -0.26747
    44.77  0.78113  0.72711  -0.27935
    47.39  0.75851  0.78019  -0.29123
    50.00  0.73589  0.83326  -0.30311
    60.00  0.60376  1.02156  -0.34363
    70.00  0.42701  1.17101  -0.37889
    80.00  0.21876  1.26228  -0.40785
    90.00  0.00001  1.28275  -0.42868
   100.00  -0.15311  1.26228  -0.44591
   110.00  -0.29924  1.17101  -0.44915
   120.00  -0.42261  1.02156  -0.44093
   130.00  -0.51536  0.83326  -0.42684
   140.00  -0.57574  0.63000  -0.41520
   150.00  -0.62036  0.43759  -0.42211
   160.00  -0.69036  0.27991  -0.49001
   170.00  -0.34474  0.17675  -0.43751
   180.00  0.00001  0.14079  -0.00001
EOT
