AeroDyn airfoil file.  Compatible with AeroDyn v13.0.
Interpolated thickness: 0.9

  1        Number of airfoil tables in this file
  9990     Reynolds number in millions.  For efficiency, make very large if only one table.
  0        Control setting
  10.6521  Stall angle (deg)
  -2.62965 Zero lift angle of attack (deg)
  1.16516  Cn slope for zero lift (dimensionless)
  0.270098 Cn at stall value for positive angle of attack
  -0.8     Cn at stall value for negative angle of attack
  -2.12    Angle of attack for minimum CD (deg)
  0.305329 Minimum CD value
  -180.00  0.00009  0.31854  -0.00009
  -170.00  0.05193  0.32395  0.05254
  -160.00  0.10390  0.33946  -0.01893
  -150.00  0.09338  0.36317  -0.00838
  -140.00  0.08667  0.39211  -0.00102
  -130.00  0.07759  0.42267  0.00610
  -120.00  0.06364  0.45099  0.01316
  -110.00  0.04509  0.47346  0.01972
  -100.00  0.02311  0.48718  0.02508
   -90.00  0.00009  0.49026  0.02861
   -80.00  -0.02294  0.48718  0.03122
   -70.00  -0.04491  0.47346  0.03169
   -60.00  -0.06347  0.45099  0.03047
   -50.00  -0.07741  0.42267  0.02833
   -40.00  -0.08649  0.39211  0.02660
   -30.00  -0.09320  0.36317  0.02764
   -20.00  -0.10347  0.33943  0.03774
   -10.00  -0.04228  0.31789  0.01664
    -4.17  -0.00939  0.30536  -0.01780
    -3.17  0.00561  0.30534  -0.01806
    -2.12  0.02114  0.30533  -0.01827
    -1.08  0.03680  0.30533  -0.01851
    -0.05  0.05232  0.30534  -0.01864
    -0.01  0.05236  0.30534  -0.01864
     1.15  0.07070  0.30537  -0.01881
     2.29  0.08798  0.30539  -0.01895
     3.44  0.10531  0.30544  -0.01905
     4.59  0.12209  0.30548  -0.01903
     5.73  0.13834  0.30552  -0.01891
     6.88  0.15375  0.30561  -0.01863
     8.03  0.16640  0.30570  -0.01785
    10.65  0.17215  0.30736  -0.01389
    13.28  0.15068  0.31901  -0.01284
    15.90  0.14551  0.32622  -0.01396
    18.52  0.14883  0.33340  -0.01570
    21.14  0.14800  0.34242  -0.01853
    23.77  0.14359  0.34863  -0.02213
    26.39  0.13917  0.35484  -0.02573
    29.01  0.13475  0.36105  -0.02933
    31.64  0.13161  0.36815  -0.03198
    34.26  0.12914  0.37571  -0.03414
    36.88  0.12667  0.38326  -0.03630
    39.51  0.12419  0.39082  -0.03846
    42.13  0.12095  0.39873  -0.04031
    44.75  0.11755  0.40671  -0.04209
    47.38  0.11415  0.41469  -0.04388
    50.00  0.11074  0.42267  -0.04567
    60.00  0.09088  0.45099  -0.05176
    70.00  0.06430  0.47346  -0.05706
    80.00  0.03298  0.48718  -0.06142
    90.00  0.00009  0.49026  -0.06455
   100.00  -0.02294  0.48718  -0.06714
   110.00  -0.04491  0.47346  -0.06763
   120.00  -0.06347  0.45099  -0.06639
   130.00  -0.07741  0.42267  -0.06427
   140.00  -0.08649  0.39211  -0.06252
   150.00  -0.09320  0.36317  -0.06356
   160.00  -0.10373  0.33946  -0.07377
   170.00  -0.05176  0.32395  -0.06588
   180.00  0.00009  0.31854  -0.00009
EOT
