AeroDyn airfoil file.  Compatible with AeroDyn v13.0.
Interpolated thickness: 0.512

  1        Number of airfoil tables in this file
  9990     Reynolds number in millions.  For efficiency, make very large if only one table.
  0        Control setting
  10.7574  Stall angle (deg)
  -3.42737 Zero lift angle of attack (deg)
  4.31828  Cn slope for zero lift (dimensionless)
  1.06908  Cn at stall value for positive angle of attack
  -0.8     Cn at stall value for negative angle of attack
  -2.12    Angle of attack for minimum CD (deg)
  0.132005 Minimum CD value
  -180.00  0.00004  0.19647  -0.00004
  -170.00  0.25303  0.22286  0.25681
  -160.00  0.50666  0.29857  -0.09199
  -150.00  0.45529  0.41427  -0.04049
  -140.00  0.42254  0.55547  -0.00459
  -130.00  0.37824  0.70463  0.03014
  -120.00  0.31017  0.84282  0.06462
  -110.00  0.21964  0.95249  0.09660
  -100.00  0.11240  1.01946  0.12280
   -90.00  0.00004  1.03448  0.14001
   -80.00  -0.11233  1.01946  0.15272
   -70.00  -0.21956  0.95249  0.15503
   -60.00  -0.31010  0.84282  0.14906
   -50.00  -0.37816  0.70463  0.13866
   -40.00  -0.42247  0.55547  0.13018
   -30.00  -0.45522  0.41427  0.13526
   -20.00  -0.50530  0.29844  0.18457
   -10.00  -0.20672  0.19333  0.08158
    -4.17  -0.04620  0.13213  -0.08646
    -3.17  0.02700  0.13207  -0.08775
    -2.12  0.10277  0.13201  -0.08877
    -1.08  0.17918  0.13201  -0.08993
    -0.05  0.25495  0.13207  -0.09057
    -0.03  0.25513  0.13207  -0.09057
     1.16  0.34463  0.13221  -0.09140
     2.33  0.42894  0.13232  -0.09210
     3.49  0.51351  0.13254  -0.09259
     4.65  0.59543  0.13272  -0.09246
     5.82  0.67473  0.13296  -0.09189
     6.98  0.74992  0.13336  -0.09051
     8.14  0.81166  0.13380  -0.08672
    10.76  0.83971  0.14194  -0.06740
    13.37  0.73495  0.19877  -0.06226
    15.99  0.70970  0.23395  -0.06772
    18.61  0.72589  0.26900  -0.07621
    21.22  0.72187  0.31299  -0.09005
    23.84  0.70031  0.34331  -0.10762
    26.45  0.67875  0.37362  -0.12519
    29.07  0.65719  0.40394  -0.14276
    31.69  0.64189  0.43858  -0.15569
    34.30  0.62982  0.47545  -0.16622
    36.92  0.61774  0.51232  -0.17675
    39.54  0.60567  0.54919  -0.18728
    42.15  0.58984  0.58779  -0.19630
    44.77  0.57324  0.62674  -0.20502
    47.38  0.55665  0.66569  -0.21374
    50.00  0.54005  0.70463  -0.22246
    60.00  0.44309  0.84282  -0.25219
    70.00  0.31338  0.95249  -0.27807
    80.00  0.16056  1.01946  -0.29932
    90.00  0.00004  1.03448  -0.31460
   100.00  -0.11233  1.01946  -0.32725
   110.00  -0.21956  0.95249  -0.32963
   120.00  -0.31010  0.84282  -0.32359
   130.00  -0.37816  0.70463  -0.31325
   140.00  -0.42247  0.55547  -0.30471
   150.00  -0.45522  0.41427  -0.30979
   160.00  -0.50659  0.29857  -0.35961
   170.00  -0.25295  0.22286  -0.32109
   180.00  0.00004  0.19647  -0.00004
EOT
