AeroDyn airfoil file.  Compatible with AeroDyn v13.0.
Interpolated thickness: 0.935

  1        Number of airfoil tables in this file
  9990     Reynolds number in millions.  For efficiency, make very large if only one table.
  0        Control setting
  10.6426  Stall angle (deg)
  -2.26439 Zero lift angle of attack (deg)
  0.880464 Cn slope for zero lift (dimensionless)
  0.198342 Cn at stall value for positive angle of attack
  -0.8     Cn at stall value for negative angle of attack
  -2.12    Angle of attack for minimum CD (deg)
  0.320964 Minimum CD value
  -180.00  0.00009  0.32955  -0.00009
  -170.00  0.03379  0.33307  0.03412
  -160.00  0.06757  0.34315  -0.01234
  -150.00  0.06073  0.35856  -0.00548
  -140.00  0.05637  0.37737  -0.00070
  -130.00  0.05047  0.39724  0.00393
  -120.00  0.04140  0.41564  0.00852
  -110.00  0.02934  0.43025  0.01278
  -100.00  0.01506  0.43917  0.01627
   -90.00  0.00009  0.44117  0.01856
   -80.00  -0.01488  0.43917  0.02026
   -70.00  -0.02916  0.43025  0.02056
   -60.00  -0.04122  0.41564  0.01977
   -50.00  -0.05028  0.39724  0.01838
   -40.00  -0.05618  0.37737  0.01725
   -30.00  -0.06055  0.35856  0.01793
   -20.00  -0.06722  0.34313  0.02450
   -10.00  -0.02745  0.32913  0.01078
    -4.17  -0.00607  0.32098  -0.01160
    -3.17  0.00368  0.32097  -0.01177
    -2.12  0.01378  0.32096  -0.01191
    -1.08  0.02395  0.32096  -0.01207
    -0.05  0.03405  0.32097  -0.01215
    -0.00  0.03407  0.32097  -0.01215
     1.15  0.04599  0.32099  -0.01226
     2.29  0.05722  0.32101  -0.01235
     3.44  0.06848  0.32104  -0.01242
     4.58  0.07940  0.32106  -0.01240
     5.73  0.08996  0.32109  -0.01233
     6.87  0.09997  0.32114  -0.01214
     8.02  0.10820  0.32120  -0.01164
    10.64  0.11193  0.32229  -0.00906
    13.27  0.09798  0.32986  -0.00838
    15.89  0.09462  0.33454  -0.00911
    18.51  0.09677  0.33921  -0.01024
    21.14  0.09624  0.34507  -0.01208
    23.76  0.09337  0.34911  -0.01442
    26.39  0.09049  0.35315  -0.01676
    29.01  0.08762  0.35718  -0.01910
    31.63  0.08558  0.36180  -0.02082
    34.26  0.08398  0.36671  -0.02223
    36.88  0.08237  0.37162  -0.02363
    39.50  0.08076  0.37653  -0.02503
    42.13  0.07865  0.38167  -0.02623
    44.75  0.07644  0.38686  -0.02740
    47.38  0.07423  0.39205  -0.02856
    50.00  0.07202  0.39724  -0.02972
    60.00  0.05910  0.41564  -0.03368
    70.00  0.04183  0.43025  -0.03712
    80.00  0.02147  0.43917  -0.03996
    90.00  0.00009  0.44117  -0.04199
   100.00  -0.01488  0.43917  -0.04368
   110.00  -0.02916  0.43025  -0.04399
   120.00  -0.04122  0.41564  -0.04319
   130.00  -0.05028  0.39724  -0.04181
   140.00  -0.05618  0.37737  -0.04067
   150.00  -0.06055  0.35856  -0.04135
   160.00  -0.06739  0.34315  -0.04799
   170.00  -0.03361  0.33307  -0.04285
   180.00  0.00009  0.32955  -0.00009
EOT
