AeroDyn airfoil file.  Compatible with AeroDyn v13.0.
Interpolated thickness: 0.494

  1        Number of airfoil tables in this file
  9990     Reynolds number in millions.  For efficiency, make very large if only one table.
  0        Control setting
  10.7623  Stall angle (deg)
  -3.44107 Zero lift angle of attack (deg)
  4.46063  Cn slope for zero lift (dimensionless)
  1.10577  Cn at stall value for positive angle of attack
  -0.8     Cn at stall value for negative angle of attack
  -2.12    Angle of attack for minimum CD (deg)
  0.123964 Minimum CD value
  -180.00  0.00003  0.19081  -0.00003
  -170.00  0.26235  0.21817  0.26628
  -160.00  0.52534  0.29667  -0.09537
  -150.00  0.47208  0.41665  -0.04198
  -140.00  0.43812  0.56305  -0.00476
  -130.00  0.39218  0.71772  0.03126
  -120.00  0.32161  0.86099  0.06701
  -110.00  0.22773  0.97471  0.10017
  -100.00  0.11655  1.04415  0.12733
   -90.00  0.00003  1.05973  0.14518
   -80.00  -0.11648  1.04415  0.15836
   -70.00  -0.22767  0.97471  0.16075
   -60.00  -0.32154  0.86099  0.15456
   -50.00  -0.39212  0.71772  0.14378
   -40.00  -0.43806  0.56305  0.13499
   -30.00  -0.47201  0.41665  0.14025
   -20.00  -0.52394  0.29654  0.19138
   -10.00  -0.21435  0.18755  0.08459
    -4.17  -0.04790  0.12410  -0.08965
    -3.17  0.02800  0.12403  -0.09098
    -2.12  0.10656  0.12396  -0.09205
    -1.08  0.18579  0.12396  -0.09324
    -0.05  0.26435  0.12403  -0.09391
    -0.03  0.26453  0.12403  -0.09391
     1.16  0.35734  0.12418  -0.09477
     2.33  0.44476  0.12429  -0.09550
     3.49  0.53245  0.12452  -0.09600
     4.66  0.61739  0.12471  -0.09587
     5.82  0.69962  0.12496  -0.09527
     6.98  0.77758  0.12537  -0.09385
     8.15  0.84159  0.12583  -0.08992
    10.76  0.87068  0.13426  -0.06989
    13.38  0.76205  0.19319  -0.06455
    15.99  0.73587  0.22967  -0.07021
    18.61  0.75266  0.26601  -0.07902
    21.23  0.74849  0.31162  -0.09336
    23.84  0.72614  0.34306  -0.11158
    26.46  0.70378  0.37450  -0.12980
    29.07  0.68143  0.40593  -0.14802
    31.69  0.66556  0.44185  -0.16143
    34.30  0.65304  0.48008  -0.17235
    36.92  0.64053  0.51831  -0.18326
    39.54  0.62801  0.55654  -0.19418
    42.15  0.61160  0.59656  -0.20354
    44.77  0.59439  0.63694  -0.21258
    47.38  0.57717  0.67733  -0.22162
    50.00  0.55996  0.71772  -0.23066
    60.00  0.45943  0.86099  -0.26149
    70.00  0.32494  0.97471  -0.28832
    80.00  0.16648  1.04415  -0.31036
    90.00  0.00003  1.05973  -0.32620
   100.00  -0.11648  1.04415  -0.33932
   110.00  -0.22767  0.97471  -0.34178
   120.00  -0.32154  0.86099  -0.33552
   130.00  -0.39212  0.71772  -0.32481
   140.00  -0.43806  0.56305  -0.31595
   150.00  -0.47201  0.41665  -0.32121
   160.00  -0.52527  0.29667  -0.37288
   170.00  -0.26229  0.21817  -0.33293
   180.00  0.00003  0.19081  -0.00003
EOT
