AeroDyn airfoil file.  Compatible with AeroDyn v13.0.
Interpolated thickness: 0.778

  1        Number of airfoil tables in this file
  9990     Reynolds number in millions.  For efficiency, make very large if only one table.
  0        Control setting
  10.6852  Stall angle (deg)
  -3.07768 Zero lift angle of attack (deg)
  2.18157  Cn slope for zero lift (dimensionless)
  0.524031 Cn at stall value for positive angle of attack
  -0.8     Cn at stall value for negative angle of attack
  -2.12    Angle of attack for minimum CD (deg)
  0.25083  Minimum CD value
  -180.00  0.00007  0.28016  -0.00007
  -170.00  0.11516  0.29216  0.11677
  -160.00  0.23054  0.32660  -0.04190
  -150.00  0.20717  0.37924  -0.01847
  -140.00  0.19228  0.44347  -0.00214
  -130.00  0.17212  0.51133  0.01366
  -120.00  0.14116  0.57419  0.02934
  -110.00  0.09997  0.62408  0.04389
  -100.00  0.05119  0.65455  0.05581
   -90.00  0.00007  0.66138  0.06364
   -80.00  -0.05105  0.65455  0.06942
   -70.00  -0.09983  0.62408  0.07047
   -60.00  -0.14102  0.57419  0.06776
   -50.00  -0.17198  0.51133  0.06302
   -40.00  -0.19213  0.44347  0.05917
   -30.00  -0.20703  0.37924  0.06148
   -20.00  -0.22982  0.32654  0.08391
   -10.00  -0.09399  0.27873  0.03706
    -4.17  -0.02096  0.25089  -0.03939
    -3.17  0.01234  0.25086  -0.03997
    -2.12  0.04681  0.25083  -0.04044
    -1.08  0.08157  0.25083  -0.04097
    -0.05  0.11604  0.25086  -0.04126
    -0.01  0.11612  0.25086  -0.04126
     1.15  0.15684  0.25092  -0.04163
     2.30  0.19519  0.25097  -0.04195
     3.46  0.23366  0.25107  -0.04217
     4.61  0.27093  0.25116  -0.04212
     5.76  0.30700  0.25127  -0.04186
     6.91  0.34121  0.25145  -0.04123
     8.06  0.36929  0.25165  -0.03950
    10.69  0.38206  0.25535  -0.03072
    13.31  0.33440  0.28120  -0.02838
    15.93  0.32291  0.29721  -0.03086
    18.55  0.33028  0.31315  -0.03473
    21.17  0.32844  0.33316  -0.04102
    23.79  0.31864  0.34696  -0.04901
    26.41  0.30883  0.36075  -0.05700
    29.03  0.29902  0.37454  -0.06500
    31.65  0.29206  0.39030  -0.07088
    34.27  0.28657  0.40707  -0.07567
    36.90  0.28108  0.42384  -0.08046
    39.52  0.27559  0.44062  -0.08525
    42.14  0.26839  0.45817  -0.08936
    44.76  0.26083  0.47589  -0.09332
    47.38  0.25328  0.49361  -0.09729
    50.00  0.24573  0.51133  -0.10126
    60.00  0.20162  0.57419  -0.11478
    70.00  0.14262  0.62408  -0.12655
    80.00  0.07310  0.65455  -0.13622
    90.00  0.00007  0.66138  -0.14317
   100.00  -0.05105  0.65455  -0.14893
   110.00  -0.09983  0.62408  -0.15001
   120.00  -0.14102  0.57419  -0.14726
   130.00  -0.17198  0.51133  -0.14256
   140.00  -0.19213  0.44347  -0.13867
   150.00  -0.20703  0.37924  -0.14098
   160.00  -0.23040  0.32660  -0.16365
   170.00  -0.11502  0.29216  -0.14612
   180.00  0.00007  0.28016  -0.00007
EOT
