AeroDyn airfoil file.  Compatible with AeroDyn v13.0.
Interpolated thickness: 0.631

  1        Number of airfoil tables in this file
  9990     Reynolds number in millions.  For efficiency, make very large if only one table.
  0        Control setting
  10.7251  Stall angle (deg)
  -3.31638 Zero lift angle of attack (deg)
  3.37007  Cn slope for zero lift (dimensionless)
  0.825906 Cn at stall value for positive angle of attack
  -0.8     Cn at stall value for negative angle of attack
  -2.12    Angle of attack for minimum CD (deg)
  0.185164 Minimum CD value
  -180.00  0.00005  0.23391  -0.00005
  -170.00  0.19135  0.25387  0.19416
  -160.00  0.38313  0.31111  -0.06958
  -150.00  0.34429  0.39860  -0.03064
  -140.00  0.31953  0.50537  -0.00350
  -130.00  0.28603  0.61816  0.02277
  -120.00  0.23456  0.72264  0.04884
  -110.00  0.16610  0.80557  0.07302
  -100.00  0.08502  0.85621  0.09283
   -90.00  0.00005  0.86757  0.10584
   -80.00  -0.08492  0.85621  0.11546
   -70.00  -0.16600  0.80557  0.11720
   -60.00  -0.23446  0.72264  0.11269
   -50.00  -0.28592  0.61816  0.10482
   -40.00  -0.31942  0.50537  0.09841
   -30.00  -0.34419  0.39860  0.10225
   -20.00  -0.38206  0.31101  0.13954
   -10.00  -0.15629  0.23153  0.06166
    -4.17  -0.03491  0.18526  -0.06540
    -3.17  0.02044  0.18521  -0.06637
    -2.12  0.07774  0.18516  -0.06715
    -1.08  0.13551  0.18516  -0.06803
    -0.05  0.19281  0.18521  -0.06851
    -0.02  0.19294  0.18521  -0.06851
     1.16  0.26062  0.18532  -0.06914
     2.32  0.32437  0.18540  -0.06967
     3.47  0.38832  0.18557  -0.07003
     4.63  0.45026  0.18571  -0.06994
     5.79  0.51022  0.18589  -0.06951
     6.95  0.56707  0.18619  -0.06847
     8.11  0.61376  0.18652  -0.06560
    10.73  0.63497  0.19267  -0.05099
    13.34  0.55575  0.23565  -0.04710
    15.96  0.53666  0.26225  -0.05123
    18.58  0.54891  0.28875  -0.05765
    21.20  0.54586  0.32201  -0.06811
    23.82  0.52956  0.34494  -0.08140
    26.44  0.51326  0.36786  -0.09468
    29.05  0.49696  0.39079  -0.10797
    31.67  0.48539  0.41698  -0.11775
    34.29  0.47626  0.44486  -0.12571
    36.91  0.46713  0.47274  -0.13367
    39.53  0.45800  0.50062  -0.14163
    42.15  0.44603  0.52980  -0.14846
    44.76  0.43348  0.55925  -0.15505
    47.38  0.42093  0.58870  -0.16165
    50.00  0.40838  0.61816  -0.16824
    60.00  0.33506  0.72264  -0.19072
    70.00  0.23699  0.80557  -0.21028
    80.00  0.12143  0.85621  -0.22636
    90.00  0.00005  0.86757  -0.23791
   100.00  -0.08492  0.85621  -0.24748
   110.00  -0.16600  0.80557  -0.24927
   120.00  -0.23446  0.72264  -0.24471
   130.00  -0.28592  0.61816  -0.23689
   140.00  -0.31942  0.50537  -0.23043
   150.00  -0.34419  0.39860  -0.23427
   160.00  -0.38303  0.31111  -0.27195
   170.00  -0.19125  0.25387  -0.24281
   180.00  0.00005  0.23391  -0.00005
EOT
