AeroDyn airfoil file.  Compatible with AeroDyn v13.0.
Interpolated thickness: 0.77

  1        Number of airfoil tables in this file
  9990     Reynolds number in millions.  For efficiency, make very large if only one table.
  0        Control setting
  10.6874  Stall angle (deg)
  -3.0963  Zero lift angle of attack (deg)
  2.24674  Cn slope for zero lift (dimensionless)
  0.540502 Cn at stall value for positive angle of attack
  -0.8     Cn at stall value for negative angle of attack
  -2.12    Angle of attack for minimum CD (deg)
  0.247257 Minimum CD value
  -180.00  0.00007  0.27764  -0.00007
  -170.00  0.11931  0.29008  0.12098
  -160.00  0.23885  0.32576  -0.04341
  -150.00  0.21464  0.38029  -0.01914
  -140.00  0.19920  0.44684  -0.00222
  -130.00  0.17832  0.51714  0.01415
  -120.00  0.14624  0.58227  0.03041
  -110.00  0.10357  0.63396  0.04548
  -100.00  0.05303  0.66552  0.05782
   -90.00  0.00007  0.67261  0.06593
   -80.00  -0.05289  0.66552  0.07193
   -70.00  -0.10343  0.63396  0.07302
   -60.00  -0.14610  0.58227  0.07020
   -50.00  -0.17818  0.51714  0.06530
   -40.00  -0.19906  0.44684  0.06130
   -30.00  -0.21450  0.38029  0.06369
   -20.00  -0.23810  0.32570  0.08694
   -10.00  -0.09738  0.27616  0.03839
    -4.17  -0.02172  0.24732  -0.04080
    -3.17  0.01278  0.24729  -0.04141
    -2.12  0.04849  0.24726  -0.04189
    -1.08  0.08450  0.24726  -0.04244
    -0.05  0.12021  0.24729  -0.04274
    -0.01  0.12030  0.24729  -0.04274
     1.15  0.16248  0.24735  -0.04313
     2.30  0.20222  0.24741  -0.04346
     3.46  0.24208  0.24751  -0.04369
     4.61  0.28069  0.24759  -0.04363
     5.76  0.31806  0.24771  -0.04336
     6.91  0.35350  0.24790  -0.04271
     8.07  0.38260  0.24810  -0.04092
    10.69  0.39582  0.25194  -0.03182
    13.31  0.34644  0.27872  -0.02940
    15.93  0.33454  0.29531  -0.03197
    18.55  0.34217  0.31182  -0.03597
    21.17  0.34028  0.33256  -0.04249
    23.79  0.33012  0.34685  -0.05077
    26.41  0.31996  0.36113  -0.05906
    29.03  0.30980  0.37542  -0.06734
    31.65  0.30258  0.39175  -0.07343
    34.27  0.29689  0.40913  -0.07839
    36.90  0.29120  0.42650  -0.08336
    39.52  0.28551  0.44388  -0.08832
    42.14  0.27805  0.46207  -0.09257
    44.76  0.27023  0.48043  -0.09668
    47.38  0.26241  0.49879  -0.10079
    50.00  0.25458  0.51714  -0.10490
    60.00  0.20889  0.58227  -0.11891
    70.00  0.14775  0.63396  -0.13111
    80.00  0.07573  0.66552  -0.14113
    90.00  0.00007  0.67261  -0.14833
   100.00  -0.05289  0.66552  -0.15429
   110.00  -0.10343  0.63396  -0.15541
   120.00  -0.14610  0.58227  -0.15257
   130.00  -0.17818  0.51714  -0.14769
   140.00  -0.19906  0.44684  -0.14367
   150.00  -0.21450  0.38029  -0.14606
   160.00  -0.23871  0.32576  -0.16954
   170.00  -0.11917  0.29008  -0.15139
   180.00  0.00007  0.27764  -0.00007
EOT
