AeroDyn airfoil file.  Compatible with AeroDyn v13.0.
Interpolated thickness: 0.432

  1        Number of airfoil tables in this file
  9990     Reynolds number in millions.  For efficiency, make very large if only one table.
  0        Control setting
  10.7791  Stall angle (deg)
  -3.4841  Zero lift angle of attack (deg)
  4.94884  Cn slope for zero lift (dimensionless)
  1.23197  Cn at stall value for positive angle of attack
  -0.8     Cn at stall value for negative angle of attack
  -2.12    Angle of attack for minimum CD (deg)
  0.0962684 Minimum CD value
  -180.00  0.00003  0.17130  -0.00003
  -170.00  0.29449  0.20202  0.29892
  -160.00  0.58970  0.29014  -0.10705
  -150.00  0.52991  0.42481  -0.04711
  -140.00  0.49179  0.58916  -0.00533
  -130.00  0.44023  0.76277  0.03510
  -120.00  0.36100  0.92361  0.07523
  -110.00  0.25563  1.05126  0.11245
  -100.00  0.13081  1.12921  0.14295
   -90.00  0.00003  1.14669  0.16298
   -80.00  -0.13076  1.12921  0.17777
   -70.00  -0.25557  1.05126  0.18046
   -60.00  -0.36095  0.92361  0.17351
   -50.00  -0.44017  0.76277  0.16141
   -40.00  -0.49174  0.58916  0.15154
   -30.00  -0.52986  0.42481  0.15745
   -20.00  -0.58815  0.28999  0.21484
   -10.00  -0.24063  0.16764  0.09497
    -4.17  -0.05379  0.09642  -0.10062
    -3.17  0.03141  0.09634  -0.10212
    -2.12  0.11960  0.09627  -0.10331
    -1.08  0.20854  0.09627  -0.10466
    -0.05  0.29673  0.09634  -0.10540
    -0.04  0.29694  0.09634  -0.10541
     1.17  0.40112  0.09651  -0.10637
     2.33  0.49924  0.09664  -0.10719
     3.50  0.59768  0.09689  -0.10775
     4.67  0.69302  0.09710  -0.10761
     5.83  0.78533  0.09738  -0.10694
     7.00  0.87284  0.09785  -0.10534
     8.16  0.94470  0.09836  -0.10092
    10.78  0.97736  0.10783  -0.07844
    13.39  0.85542  0.17398  -0.07245
    16.01  0.82602  0.21493  -0.07881
    18.62  0.84488  0.25572  -0.08869
    21.24  0.84019  0.30692  -0.10479
    23.85  0.81510  0.34221  -0.12524
    26.47  0.79001  0.37750  -0.14569
    29.08  0.76491  0.41278  -0.16615
    31.70  0.74710  0.45310  -0.18119
    34.31  0.73305  0.49601  -0.19345
    36.93  0.71900  0.53893  -0.20571
    39.54  0.70495  0.58184  -0.21796
    42.16  0.68652  0.62677  -0.22847
    44.77  0.66720  0.67210  -0.23862
    47.39  0.64788  0.71744  -0.24877
    50.00  0.62856  0.76277  -0.25891
    60.00  0.51571  0.92361  -0.29352
    70.00  0.36474  1.05126  -0.32364
    80.00  0.18687  1.12921  -0.34837
    90.00  0.00003  1.14669  -0.36616
   100.00  -0.13076  1.12921  -0.38088
   110.00  -0.25557  1.05126  -0.38365
   120.00  -0.36095  0.92361  -0.37662
   130.00  -0.44017  0.76277  -0.36459
   140.00  -0.49174  0.58916  -0.35465
   150.00  -0.52986  0.42481  -0.36056
   160.00  -0.58965  0.29014  -0.41855
   170.00  -0.29444  0.20202  -0.37371
   180.00  0.00003  0.17130  -0.00003
EOT
