AeroDyn airfoil file.  Compatible with AeroDyn v13.0.
Interpolated thickness: 0.633

  1        Number of airfoil tables in this file
  9990     Reynolds number in millions.  For efficiency, make very large if only one table.
  0        Control setting
  10.7246  Stall angle (deg)
  -3.31411 Zero lift angle of attack (deg)
  3.35403  Cn slope for zero lift (dimensionless)
  0.82181  Cn at stall value for positive angle of attack
  -0.8     Cn at stall value for negative angle of attack
  -2.12    Angle of attack for minimum CD (deg)
  0.186057 Minimum CD value
  -180.00  0.00005  0.23454  -0.00005
  -170.00  0.19031  0.25439  0.19311
  -160.00  0.38106  0.31132  -0.06920
  -150.00  0.34242  0.39834  -0.03047
  -140.00  0.31780  0.50453  -0.00348
  -130.00  0.28448  0.61670  0.02264
  -120.00  0.23329  0.72062  0.04858
  -110.00  0.16520  0.80310  0.07262
  -100.00  0.08456  0.85347  0.09233
   -90.00  0.00005  0.86477  0.10527
   -80.00  -0.08445  0.85347  0.11483
   -70.00  -0.16510  0.80310  0.11657
   -60.00  -0.23319  0.72062  0.11208
   -50.00  -0.28437  0.61670  0.10425
   -40.00  -0.31769  0.50453  0.09788
   -30.00  -0.34232  0.39834  0.10169
   -20.00  -0.37999  0.31122  0.13878
   -10.00  -0.15544  0.23217  0.06132
    -4.17  -0.03472  0.18615  -0.06505
    -3.17  0.02033  0.18611  -0.06602
    -2.12  0.07731  0.18606  -0.06679
    -1.08  0.13478  0.18606  -0.06766
    -0.05  0.19176  0.18611  -0.06814
    -0.02  0.19189  0.18611  -0.06814
     1.16  0.25921  0.18621  -0.06876
     2.32  0.32261  0.18630  -0.06929
     3.47  0.38621  0.18646  -0.06965
     4.63  0.44782  0.18660  -0.06956
     5.79  0.50746  0.18678  -0.06913
     6.95  0.56400  0.18708  -0.06810
     8.11  0.61043  0.18741  -0.06524
    10.72  0.63153  0.19353  -0.05072
    13.34  0.55274  0.23627  -0.04685
    15.96  0.53375  0.26273  -0.05095
    18.58  0.54593  0.28908  -0.05734
    21.20  0.54290  0.32217  -0.06774
    23.82  0.52669  0.34497  -0.08096
    26.43  0.51048  0.36777  -0.09417
    29.05  0.49427  0.39057  -0.10739
    31.67  0.48276  0.41662  -0.11711
    34.29  0.47368  0.44434  -0.12503
    36.91  0.46460  0.47207  -0.13295
    39.53  0.45552  0.49980  -0.14087
    42.14  0.44362  0.52883  -0.14766
    44.76  0.43113  0.55812  -0.15421
    47.38  0.41865  0.58741  -0.16077
    50.00  0.40617  0.61670  -0.16733
    60.00  0.33325  0.72062  -0.18968
    70.00  0.23570  0.80310  -0.20915
    80.00  0.12078  0.85347  -0.22513
    90.00  0.00005  0.86477  -0.23662
   100.00  -0.08445  0.85347  -0.24613
   110.00  -0.16510  0.80310  -0.24792
   120.00  -0.23319  0.72062  -0.24338
   130.00  -0.28437  0.61670  -0.23561
   140.00  -0.31769  0.50453  -0.22919
   150.00  -0.34232  0.39834  -0.23300
   160.00  -0.38095  0.31132  -0.27047
   170.00  -0.19021  0.25439  -0.24150
   180.00  0.00005  0.23454  -0.00005
EOT
