AeroDyn airfoil file.  Compatible with AeroDyn v13.0.
Interpolated thickness: 0.659

  1        Number of airfoil tables in this file
  9990     Reynolds number in millions.  For efficiency, make very large if only one table.
  0        Control setting
  10.7175  Stall angle (deg)
  -3.2829  Zero lift angle of attack (deg)
  3.14517  Cn slope for zero lift (dimensionless)
  0.768533 Cn at stall value for positive angle of attack
  -0.8     Cn at stall value for negative angle of attack
  -2.12    Angle of attack for minimum CD (deg)
  0.197672 Minimum CD value
  -180.00  0.00006  0.24272  -0.00006
  -170.00  0.17684  0.26116  0.17942
  -160.00  0.35407  0.31406  -0.06431
  -150.00  0.31817  0.39491  -0.02832
  -140.00  0.29529  0.49358  -0.00324
  -130.00  0.26433  0.59781  0.02103
  -120.00  0.21677  0.69437  0.04513
  -110.00  0.15351  0.77100  0.06747
  -100.00  0.07857  0.81780  0.08578
   -90.00  0.00006  0.82830  0.09780
   -80.00  -0.07846  0.81780  0.10669
   -70.00  -0.15339  0.77100  0.10830
   -60.00  -0.21666  0.69437  0.10413
   -50.00  -0.26422  0.59781  0.09686
   -40.00  -0.29518  0.49358  0.09094
   -30.00  -0.31806  0.39491  0.09448
   -20.00  -0.35306  0.31397  0.12894
   -10.00  -0.14442  0.24052  0.05697
    -4.17  -0.03225  0.19776  -0.06045
    -3.17  0.01890  0.19772  -0.06135
    -2.12  0.07184  0.19767  -0.06206
    -1.08  0.12524  0.19767  -0.06287
    -0.05  0.17818  0.19772  -0.06332
    -0.02  0.17831  0.19772  -0.06332
     1.16  0.24085  0.19781  -0.06390
     2.31  0.29976  0.19789  -0.06439
     3.47  0.35886  0.19805  -0.06473
     4.63  0.41610  0.19817  -0.06464
     5.78  0.47151  0.19834  -0.06424
     6.94  0.52405  0.19862  -0.06328
     8.10  0.56719  0.19893  -0.06063
    10.72  0.58680  0.20461  -0.04713
    13.34  0.51359  0.24433  -0.04353
    15.96  0.49595  0.26891  -0.04735
    18.57  0.50726  0.29340  -0.05329
    21.19  0.50445  0.32414  -0.06295
    23.81  0.48939  0.34532  -0.07523
    26.43  0.47432  0.36651  -0.08751
    29.05  0.45926  0.38769  -0.09979
    31.67  0.44856  0.41190  -0.10882
    34.29  0.44013  0.43766  -0.11618
    36.91  0.43169  0.46342  -0.12354
    39.52  0.42326  0.48919  -0.13089
    42.14  0.41220  0.51616  -0.13720
    44.76  0.40060  0.54337  -0.14329
    47.38  0.38900  0.57059  -0.14939
    50.00  0.37740  0.59781  -0.15548
    60.00  0.30965  0.69437  -0.17625
    70.00  0.21901  0.77100  -0.19434
    80.00  0.11223  0.81780  -0.20919
    90.00  0.00006  0.82830  -0.21987
   100.00  -0.07846  0.81780  -0.22870
   110.00  -0.15339  0.77100  -0.23036
   120.00  -0.21666  0.69437  -0.22615
   130.00  -0.26422  0.59781  -0.21892
   140.00  -0.29518  0.49358  -0.21296
   150.00  -0.31806  0.39491  -0.21650
   160.00  -0.35396  0.31406  -0.25132
   170.00  -0.17673  0.26116  -0.22440
   180.00  0.00006  0.24272  -0.00006
EOT
