AeroDyn airfoil file.  Compatible with AeroDyn v13.0.
Interpolated thickness: 0.635

  1        Number of airfoil tables in this file
  9990     Reynolds number in millions.  For efficiency, make very large if only one table.
  0        Control setting
  10.7241  Stall angle (deg)
  -3.31182 Zero lift angle of attack (deg)
  3.33799  Cn slope for zero lift (dimensionless)
  0.817714 Cn at stall value for positive angle of attack
  -0.8     Cn at stall value for negative angle of attack
  -2.12    Angle of attack for minimum CD (deg)
  0.186951 Minimum CD value
  -180.00  0.00005  0.23517  -0.00005
  -170.00  0.18928  0.25491  0.19205
  -160.00  0.37898  0.31153  -0.06883
  -150.00  0.34056  0.39807  -0.03031
  -140.00  0.31607  0.50368  -0.00346
  -130.00  0.28293  0.61525  0.02252
  -120.00  0.23202  0.71860  0.04831
  -110.00  0.16430  0.80063  0.07223
  -100.00  0.08410  0.85072  0.09182
   -90.00  0.00005  0.86196  0.10469
   -80.00  -0.08399  0.85072  0.11420
   -70.00  -0.16420  0.80063  0.11593
   -60.00  -0.23192  0.71860  0.11147
   -50.00  -0.28282  0.61525  0.10368
   -40.00  -0.31596  0.50368  0.09735
   -30.00  -0.34045  0.39807  0.10114
   -20.00  -0.37792  0.31143  0.13802
   -10.00  -0.15459  0.23282  0.06099
    -4.17  -0.03453  0.18705  -0.06470
    -3.17  0.02022  0.18700  -0.06566
    -2.12  0.07689  0.18695  -0.06642
    -1.08  0.13405  0.18695  -0.06729
    -0.05  0.19072  0.18700  -0.06777
    -0.02  0.19085  0.18700  -0.06777
     1.16  0.25779  0.18710  -0.06839
     2.32  0.32085  0.18719  -0.06891
     3.47  0.38411  0.18735  -0.06927
     4.63  0.44538  0.18749  -0.06918
     5.79  0.50469  0.18767  -0.06875
     6.95  0.56093  0.18797  -0.06772
     8.11  0.60710  0.18830  -0.06489
    10.72  0.62809  0.19438  -0.05044
    13.34  0.54973  0.23689  -0.04659
    15.96  0.53084  0.26320  -0.05068
    18.58  0.54296  0.28942  -0.05703
    21.20  0.53995  0.32232  -0.06737
    23.82  0.52382  0.34499  -0.08052
    26.43  0.50770  0.36767  -0.09366
    29.05  0.49157  0.39035  -0.10680
    31.67  0.48013  0.41625  -0.11647
    34.29  0.47110  0.44383  -0.12435
    36.91  0.46207  0.47141  -0.13222
    39.53  0.45304  0.49898  -0.14010
    42.14  0.44120  0.52785  -0.14685
    44.76  0.42878  0.55698  -0.15337
    47.38  0.41637  0.58612  -0.15989
    50.00  0.40395  0.61525  -0.16642
    60.00  0.33143  0.71860  -0.18865
    70.00  0.23442  0.80063  -0.20801
    80.00  0.12012  0.85072  -0.22390
    90.00  0.00005  0.86196  -0.23533
   100.00  -0.08399  0.85072  -0.24479
   110.00  -0.16420  0.80063  -0.24657
   120.00  -0.23192  0.71860  -0.24206
   130.00  -0.28282  0.61525  -0.23432
   140.00  -0.31596  0.50368  -0.22794
   150.00  -0.34045  0.39807  -0.23173
   160.00  -0.37888  0.31153  -0.26900
   170.00  -0.18917  0.25491  -0.24018
   180.00  0.00005  0.23517  -0.00005
EOT
