AeroDyn airfoil file.  Compatible with AeroDyn v13.0.
Interpolated thickness: 0.645

  1        Number of airfoil tables in this file
  9990     Reynolds number in millions.  For efficiency, make very large if only one table.
  0        Control setting
  10.7213  Stall angle (deg)
  -3.30011 Zero lift angle of attack (deg)
  3.25771  Cn slope for zero lift (dimensionless)
  0.797227 Cn at stall value for positive angle of attack
  -0.8     Cn at stall value for negative angle of attack
  -2.12    Angle of attack for minimum CD (deg)
  0.191418 Minimum CD value
  -180.00  0.00005  0.23832  -0.00005
  -170.00  0.18409  0.25751  0.18679
  -160.00  0.36860  0.31258  -0.06694
  -150.00  0.33123  0.39676  -0.02948
  -140.00  0.30741  0.49947  -0.00337
  -130.00  0.27518  0.60798  0.02190
  -120.00  0.22567  0.70850  0.04698
  -110.00  0.15980  0.78828  0.07025
  -100.00  0.08180  0.83700  0.08930
   -90.00  0.00005  0.84793  0.10182
   -80.00  -0.08169  0.83700  0.11107
   -70.00  -0.15970  0.78828  0.11275
   -60.00  -0.22556  0.70850  0.10841
   -50.00  -0.27507  0.60798  0.10084
   -40.00  -0.30730  0.49947  0.09468
   -30.00  -0.33112  0.39676  0.09837
   -20.00  -0.36756  0.31249  0.13424
   -10.00  -0.15035  0.23603  0.05932
    -4.17  -0.03358  0.19151  -0.06293
    -3.17  0.01967  0.19146  -0.06386
    -2.12  0.07479  0.19142  -0.06461
    -1.08  0.13038  0.19142  -0.06545
    -0.05  0.18549  0.19146  -0.06592
    -0.02  0.18562  0.19146  -0.06592
     1.16  0.25073  0.19157  -0.06652
     2.32  0.31206  0.19165  -0.06703
     3.47  0.37359  0.19181  -0.06738
     4.63  0.43318  0.19194  -0.06729
     5.79  0.49087  0.19211  -0.06687
     6.95  0.54556  0.19241  -0.06587
     8.10  0.59047  0.19273  -0.06311
    10.72  0.61089  0.19864  -0.04906
    13.34  0.53467  0.23999  -0.04532
    15.96  0.51630  0.26558  -0.04929
    18.58  0.52809  0.29108  -0.05547
    21.20  0.52516  0.32308  -0.06553
    23.81  0.50947  0.34513  -0.07831
    26.43  0.49379  0.36719  -0.09110
    29.05  0.47811  0.38924  -0.10388
    31.67  0.46697  0.41444  -0.11328
    34.29  0.45819  0.44126  -0.12094
    36.91  0.44941  0.46808  -0.12860
    39.53  0.44063  0.49490  -0.13626
    42.14  0.42911  0.52298  -0.14283
    44.76  0.41704  0.55131  -0.14917
    47.38  0.40496  0.57965  -0.15552
    50.00  0.39289  0.60798  -0.16186
    60.00  0.32236  0.70850  -0.18349
    70.00  0.22800  0.78828  -0.20231
    80.00  0.11683  0.83700  -0.21777
    90.00  0.00005  0.84793  -0.22889
   100.00  -0.08169  0.83700  -0.23809
   110.00  -0.15970  0.78828  -0.23982
   120.00  -0.22556  0.70850  -0.23543
   130.00  -0.27507  0.60798  -0.22791
   140.00  -0.30730  0.49947  -0.22169
   150.00  -0.33112  0.39676  -0.22538
   160.00  -0.36849  0.31258  -0.26163
   170.00  -0.18399  0.25751  -0.23361
   180.00  0.00005  0.23832  -0.00005
EOT
