AeroDyn airfoil file.  Compatible with AeroDyn v13.0.
Interpolated thickness: 0.66

  1        Number of airfoil tables in this file
  9990     Reynolds number in millions.  For efficiency, make very large if only one table.
  0        Control setting
  10.7173  Stall angle (deg)
  -3.28163 Zero lift angle of attack (deg)
  3.13712  Cn slope for zero lift (dimensionless)
  0.766483 Cn at stall value for positive angle of attack
  -0.8     Cn at stall value for negative angle of attack
  -2.12    Angle of attack for minimum CD (deg)
  0.198118 Minimum CD value
  -180.00  0.00006  0.24303  -0.00006
  -170.00  0.17632  0.26142  0.17889
  -160.00  0.35303  0.31417  -0.06412
  -150.00  0.31724  0.39478  -0.02824
  -140.00  0.29442  0.49316  -0.00323
  -130.00  0.26356  0.59708  0.02097
  -120.00  0.21613  0.69336  0.04499
  -110.00  0.15306  0.76977  0.06727
  -100.00  0.07834  0.81643  0.08553
   -90.00  0.00006  0.82689  0.09752
   -80.00  -0.07823  0.81643  0.10637
   -70.00  -0.15294  0.76977  0.10798
   -60.00  -0.21602  0.69336  0.10382
   -50.00  -0.26344  0.59708  0.09658
   -40.00  -0.29431  0.49316  0.09067
   -30.00  -0.31713  0.39478  0.09421
   -20.00  -0.35202  0.31408  0.12856
   -10.00  -0.14400  0.24084  0.05681
    -4.17  -0.03216  0.19821  -0.06027
    -3.17  0.01884  0.19816  -0.06117
    -2.12  0.07163  0.19812  -0.06188
    -1.08  0.12487  0.19812  -0.06269
    -0.05  0.17766  0.19816  -0.06313
    -0.02  0.17778  0.19816  -0.06314
     1.16  0.24014  0.19826  -0.06371
     2.31  0.29888  0.19834  -0.06420
     3.47  0.35781  0.19849  -0.06454
     4.63  0.41488  0.19862  -0.06445
     5.78  0.47013  0.19878  -0.06405
     6.94  0.52252  0.19907  -0.06309
     8.10  0.56553  0.19937  -0.06045
    10.72  0.58508  0.20504  -0.04699
    13.34  0.51209  0.24464  -0.04341
    15.95  0.49449  0.26915  -0.04721
    18.57  0.50578  0.29357  -0.05313
    21.19  0.50297  0.32421  -0.06277
    23.81  0.48795  0.34534  -0.07501
    26.43  0.47293  0.36646  -0.08725
    29.05  0.45791  0.38758  -0.09949
    31.67  0.44725  0.41171  -0.10850
    34.29  0.43884  0.43740  -0.11584
    36.91  0.43043  0.46309  -0.12317
    39.52  0.42201  0.48878  -0.13051
    42.14  0.41099  0.51567  -0.13680
    44.76  0.39942  0.54281  -0.14287
    47.38  0.38786  0.56994  -0.14895
    50.00  0.37629  0.59708  -0.15502
    60.00  0.30874  0.69336  -0.17574
    70.00  0.21837  0.76977  -0.19377
    80.00  0.11190  0.81643  -0.20857
    90.00  0.00006  0.82689  -0.21922
   100.00  -0.07823  0.81643  -0.22803
   110.00  -0.15294  0.76977  -0.22969
   120.00  -0.21602  0.69336  -0.22548
   130.00  -0.26344  0.59708  -0.21828
   140.00  -0.29431  0.49316  -0.21233
   150.00  -0.31713  0.39478  -0.21587
   160.00  -0.35292  0.31417  -0.25058
   170.00  -0.17621  0.26142  -0.22374
   180.00  0.00006  0.24303  -0.00006
EOT
