AeroDyn airfoil file.  Compatible with AeroDyn v13.0.
Interpolated thickness: 0.741

  1        Number of airfoil tables in this file
  9990     Reynolds number in millions.  For efficiency, make very large if only one table.
  0        Control setting
  10.6953  Stall angle (deg)
  -3.15639 Zero lift angle of attack (deg)
  2.48252  Cn slope for zero lift (dimensionless)
  0.600169 Cn at stall value for positive angle of attack
  -0.8     Cn at stall value for negative angle of attack
  -2.12    Angle of attack for minimum CD (deg)
  0.234302 Minimum CD value
  -180.00  0.00007  0.26852  -0.00007
  -170.00  0.13434  0.28252  0.13625
  -160.00  0.26895  0.32270  -0.04887
  -150.00  0.24169  0.38411  -0.02154
  -140.00  0.22431  0.45905  -0.00249
  -130.00  0.20079  0.53822  0.01595
  -120.00  0.16467  0.61156  0.03425
  -110.00  0.11662  0.66976  0.05122
  -100.00  0.05970  0.70531  0.06513
   -90.00  0.00007  0.71328  0.07426
   -80.00  -0.05957  0.70531  0.08101
   -70.00  -0.11648  0.66976  0.08223
   -60.00  -0.16454  0.61156  0.07907
   -50.00  -0.20066  0.53822  0.07354
   -40.00  -0.22417  0.45905  0.06905
   -30.00  -0.24155  0.38411  0.07174
   -20.00  -0.26814  0.32263  0.09791
   -10.00  -0.10967  0.26685  0.04325
    -4.17  -0.02447  0.23437  -0.04594
    -3.17  0.01438  0.23434  -0.04662
    -2.12  0.05459  0.23430  -0.04716
    -1.08  0.09515  0.23430  -0.04778
    -0.05  0.13536  0.23434  -0.04812
    -0.02  0.13545  0.23434  -0.04812
     1.15  0.18296  0.23441  -0.04856
     2.31  0.22770  0.23447  -0.04893
     3.46  0.27259  0.23459  -0.04919
     4.61  0.31606  0.23468  -0.04912
     5.77  0.35815  0.23481  -0.04882
     6.92  0.39806  0.23502  -0.04809
     8.07  0.43082  0.23526  -0.04607
    10.70  0.44572  0.23957  -0.03582
    13.32  0.39011  0.26974  -0.03309
    15.94  0.37671  0.28841  -0.03599
    18.56  0.38531  0.30701  -0.04050
    21.18  0.38317  0.33036  -0.04784
    23.80  0.37173  0.34645  -0.05716
    26.42  0.36029  0.36254  -0.06649
    29.04  0.34884  0.37863  -0.07581
    31.66  0.34072  0.39701  -0.08268
    34.28  0.33431  0.41658  -0.08826
    36.90  0.32791  0.43615  -0.09385
    39.52  0.32150  0.45572  -0.09944
    42.14  0.31310  0.47620  -0.10423
    44.76  0.30429  0.49687  -0.10886
    47.38  0.29548  0.51755  -0.11349
    50.00  0.28667  0.53822  -0.11812
    60.00  0.23521  0.61156  -0.13389
    70.00  0.16637  0.66976  -0.14763
    80.00  0.08526  0.70531  -0.15891
    90.00  0.00007  0.71328  -0.16702
   100.00  -0.05957  0.70531  -0.17373
   110.00  -0.11648  0.66976  -0.17499
   120.00  -0.16454  0.61156  -0.17179
   130.00  -0.20066  0.53822  -0.16630
   140.00  -0.22417  0.45905  -0.16177
   150.00  -0.24155  0.38411  -0.16446
   160.00  -0.26882  0.32270  -0.19091
   170.00  -0.13421  0.28252  -0.17046
   180.00  0.00007  0.26852  -0.00007
EOT
