AeroDyn airfoil file.  Compatible with AeroDyn v13.0.
Interpolated thickness: 0.4

  1        Number of airfoil tables in this file
  9990     Reynolds number in millions.  For efficiency, make very large if only one table.
  0        Control setting
  10.7878  Stall angle (deg)
  -3.50422 Zero lift angle of attack (deg)
  5.19953  Cn slope for zero lift (dimensionless)
  1.29699  Cn at stall value for positive angle of attack
  -0.8     Cn at stall value for negative angle of attack
  -2.12    Angle of attack for minimum CD (deg)
  0.0819737 Minimum CD value
  -180.00  0.00002  0.16124  -0.00002
  -170.00  0.31107  0.19368  0.31577
  -160.00  0.62292  0.28676  -0.11307
  -150.00  0.55976  0.42903  -0.04976
  -140.00  0.51949  0.60263  -0.00563
  -130.00  0.46502  0.78603  0.03708
  -120.00  0.38134  0.95592  0.07948
  -110.00  0.27002  1.09076  0.11879
  -100.00  0.13818  1.17311  0.15101
   -90.00  0.00002  1.19158  0.17216
   -80.00  -0.13814  1.17311  0.18779
   -70.00  -0.26998  1.09076  0.19064
   -60.00  -0.38129  0.95592  0.18329
   -50.00  -0.46498  0.78603  0.17051
   -40.00  -0.51945  0.60263  0.16008
   -30.00  -0.55972  0.42903  0.16632
   -20.00  -0.62129  0.28661  0.22695
   -10.00  -0.25419  0.15737  0.10032
    -4.17  -0.05682  0.08213  -0.10628
    -3.17  0.03318  0.08205  -0.10786
    -2.12  0.12634  0.08197  -0.10913
    -1.08  0.22028  0.08197  -0.11055
    -0.05  0.31344  0.08205  -0.11134
    -0.04  0.31366  0.08205  -0.11134
     1.17  0.42371  0.08223  -0.11235
     2.34  0.52736  0.08236  -0.11322
     3.50  0.63135  0.08263  -0.11381
     4.67  0.73206  0.08286  -0.11366
     5.84  0.82956  0.08315  -0.11296
     7.01  0.92201  0.08364  -0.11126
     8.17  0.99792  0.08418  -0.10660
    10.79  1.03241  0.09419  -0.08285
    13.40  0.90360  0.16406  -0.07652
    16.02  0.87255  0.20732  -0.08324
    18.63  0.89247  0.25041  -0.09368
    21.24  0.88752  0.30450  -0.11069
    23.86  0.86101  0.34177  -0.13229
    26.47  0.83451  0.37905  -0.15390
    29.09  0.80800  0.41632  -0.17550
    31.70  0.78918  0.45891  -0.19140
    34.32  0.77434  0.50424  -0.20434
    36.93  0.75950  0.54957  -0.21729
    39.54  0.74466  0.59491  -0.23024
    42.16  0.72520  0.64236  -0.24134
    44.77  0.70479  0.69025  -0.25205
    47.39  0.68438  0.73814  -0.26277
    50.00  0.66397  0.78603  -0.27349
    60.00  0.54476  0.95592  -0.31005
    70.00  0.38528  1.09076  -0.34186
    80.00  0.19739  1.17311  -0.36799
    90.00  0.00002  1.19158  -0.38678
   100.00  -0.13814  1.17311  -0.40234
   110.00  -0.26998  1.09076  -0.40526
   120.00  -0.38129  0.95592  -0.39784
   130.00  -0.46498  0.78603  -0.38513
   140.00  -0.51945  0.60263  -0.37463
   150.00  -0.55972  0.42903  -0.38086
   160.00  -0.62287  0.28676  -0.44213
   170.00  -0.31103  0.19368  -0.39476
   180.00  0.00002  0.16124  -0.00002
EOT
