AeroDyn airfoil file.  Compatible with AeroDyn v13.0.
Interpolated thickness: 0.713

  1        Number of airfoil tables in this file
  9990     Reynolds number in millions.  For efficiency, make very large if only one table.
  0        Control setting
  10.7029  Stall angle (deg)
  -3.20555 Zero lift angle of attack (deg)
  2.70946  Cn slope for zero lift (dimensionless)
  0.657717 Cn at stall value for positive angle of attack
  -0.8     Cn at stall value for negative angle of attack
  -2.12    Angle of attack for minimum CD (deg)
  0.221794 Minimum CD value
  -180.00  0.00006  0.25971  -0.00006
  -170.00  0.14885  0.27523  0.15099
  -160.00  0.29801  0.31975  -0.05414
  -150.00  0.26780  0.38780  -0.02385
  -140.00  0.24854  0.47084  -0.00274
  -130.00  0.22249  0.55857  0.01769
  -120.00  0.18246  0.63983  0.03797
  -110.00  0.12921  0.70433  0.05677
  -100.00  0.06615  0.74372  0.07218
   -90.00  0.00006  0.75256  0.08230
   -80.00  -0.06602  0.74372  0.08978
   -70.00  -0.12909  0.70433  0.09114
   -60.00  -0.18233  0.63983  0.08762
   -50.00  -0.22236  0.55857  0.08151
   -40.00  -0.24842  0.47084  0.07652
   -30.00  -0.26768  0.38780  0.07950
   -20.00  -0.29713  0.31968  0.10851
   -10.00  -0.12154  0.25786  0.04793
    -4.17  -0.02713  0.22187  -0.05089
    -3.17  0.01592  0.22183  -0.05165
    -2.12  0.06048  0.22179  -0.05225
    -1.08  0.10542  0.22179  -0.05293
    -0.05  0.14998  0.22183  -0.05331
    -0.02  0.15009  0.22183  -0.05331
     1.15  0.20273  0.22191  -0.05379
     2.31  0.25231  0.22198  -0.05421
     3.46  0.30205  0.22211  -0.05449
     4.62  0.35022  0.22222  -0.05442
     5.77  0.39686  0.22236  -0.05408
     6.93  0.44108  0.22259  -0.05327
     8.08  0.47739  0.22285  -0.05104
    10.70  0.49389  0.22764  -0.03968
    13.32  0.43228  0.26106  -0.03666
    15.94  0.41742  0.28175  -0.03987
    18.56  0.42695  0.30236  -0.04486
    21.18  0.42458  0.32823  -0.05300
    23.80  0.41190  0.34606  -0.06333
    26.42  0.39922  0.36389  -0.07367
    29.04  0.38655  0.38172  -0.08400
    31.66  0.37755  0.40209  -0.09160
    34.28  0.37045  0.42378  -0.09780
    36.90  0.36335  0.44546  -0.10399
    39.52  0.35625  0.46715  -0.11018
    42.14  0.34694  0.48985  -0.11549
    44.76  0.33717  0.51275  -0.12062
    47.38  0.32741  0.53566  -0.12575
    50.00  0.31765  0.55857  -0.13087
    60.00  0.26063  0.63983  -0.14836
    70.00  0.18435  0.70433  -0.16358
    80.00  0.09447  0.74372  -0.17608
    90.00  0.00006  0.75256  -0.18506
   100.00  -0.06602  0.74372  -0.19250
   110.00  -0.12909  0.70433  -0.19390
   120.00  -0.18233  0.63983  -0.19035
   130.00  -0.22236  0.55857  -0.18427
   140.00  -0.24842  0.47084  -0.17925
   150.00  -0.26768  0.38780  -0.18223
   160.00  -0.29789  0.31975  -0.21154
   170.00  -0.14872  0.27523  -0.18888
   180.00  0.00006  0.25971  -0.00006
EOT
