AeroDyn airfoil file.  Compatible with AeroDyn v13.0.
Interpolated thickness: 0.525

  1        Number of airfoil tables in this file
  9990     Reynolds number in millions.  For efficiency, make very large if only one table.
  0        Control setting
  10.7539  Stall angle (deg)
  -3.41707 Zero lift angle of attack (deg)
  4.21529  Cn slope for zero lift (dimensionless)
  1.04257  Cn at stall value for positive angle of attack
  -0.8     Cn at stall value for negative angle of attack
  -2.12    Angle of attack for minimum CD (deg)
  0.137813 Minimum CD value
  -180.00  0.00004  0.20056  -0.00004
  -170.00  0.24629  0.22625  0.24996
  -160.00  0.49316  0.29994  -0.08954
  -150.00  0.44316  0.41256  -0.03941
  -140.00  0.41129  0.55000  -0.00448
  -130.00  0.36816  0.69519  0.02934
  -120.00  0.30191  0.82969  0.06290
  -110.00  0.21379  0.93644  0.09402
  -100.00  0.10941  1.00163  0.11953
   -90.00  0.00004  1.01625  0.13628
   -80.00  -0.10934  1.00163  0.14865
   -70.00  -0.21371  0.93644  0.15090
   -60.00  -0.30184  0.82969  0.14509
   -50.00  -0.36809  0.69519  0.13496
   -40.00  -0.41121  0.55000  0.12671
   -30.00  -0.44309  0.41256  0.13165
   -20.00  -0.49184  0.29981  0.17965
   -10.00  -0.20121  0.19750  0.07940
    -4.17  -0.04496  0.13794  -0.08416
    -3.17  0.02629  0.13788  -0.08541
    -2.12  0.10004  0.13781  -0.08641
    -1.08  0.17441  0.13781  -0.08754
    -0.05  0.24816  0.13788  -0.08816
    -0.03  0.24833  0.13788  -0.08816
     1.16  0.33546  0.13801  -0.08897
     2.33  0.41752  0.13812  -0.08965
     3.49  0.49984  0.13833  -0.09012
     4.65  0.57957  0.13851  -0.09000
     5.81  0.65676  0.13874  -0.08944
     6.97  0.72994  0.13913  -0.08811
     8.14  0.79004  0.13956  -0.08441
    10.75  0.81735  0.14748  -0.06561
    13.37  0.71537  0.20280  -0.06060
    15.99  0.69079  0.23705  -0.06592
    18.60  0.70656  0.27116  -0.07419
    21.22  0.70264  0.31398  -0.08765
    23.84  0.68166  0.34349  -0.10475
    26.45  0.66067  0.37299  -0.12186
    29.07  0.63969  0.40250  -0.13896
    31.69  0.62479  0.43622  -0.15154
    34.30  0.61304  0.47211  -0.16179
    36.92  0.60129  0.50800  -0.17204
    39.53  0.58954  0.54388  -0.18229
    42.15  0.57413  0.58145  -0.19108
    44.77  0.55798  0.61936  -0.19956
    47.38  0.54182  0.65728  -0.20805
    50.00  0.52566  0.69519  -0.21654
    60.00  0.43129  0.82969  -0.24548
    70.00  0.30504  0.93644  -0.27066
    80.00  0.15629  1.00163  -0.29135
    90.00  0.00004  1.01625  -0.30623
   100.00  -0.10934  1.00163  -0.31854
   110.00  -0.21371  0.93644  -0.32085
   120.00  -0.30184  0.82969  -0.31498
   130.00  -0.36809  0.69519  -0.30491
   140.00  -0.41121  0.55000  -0.29660
   150.00  -0.44309  0.41256  -0.30154
   160.00  -0.49309  0.29994  -0.35004
   170.00  -0.24621  0.22625  -0.31254
   180.00  0.00004  0.20056  -0.00004
EOT
