AeroDyn airfoil file.  Compatible with AeroDyn v13.0.
Interpolated thickness: 0.873

  1        Number of airfoil tables in this file
  9990     Reynolds number in millions.  For efficiency, make very large if only one table.
  0        Control setting
  10.6595  Stall angle (deg)
  -2.80987 Zero lift angle of attack (deg)
  1.38427  Cn slope for zero lift (dimensionless)
  0.32542  Cn at stall value for positive angle of attack
  -0.8     Cn at stall value for negative angle of attack
  -2.12    Angle of attack for minimum CD (deg)
  0.293268 Minimum CD value
  -180.00  0.00008  0.31005  -0.00008
  -170.00  0.06592  0.31691  0.06676
  -160.00  0.13193  0.33661  -0.02401
  -150.00  0.11856  0.36673  -0.01061
  -140.00  0.11004  0.40347  -0.00127
  -130.00  0.09851  0.44229  0.00777
  -120.00  0.08080  0.47825  0.01674
  -110.00  0.05723  0.50679  0.02507
  -100.00  0.02933  0.52422  0.03188
   -90.00  0.00008  0.52813  0.03636
   -80.00  -0.02916  0.52422  0.03967
   -70.00  -0.05707  0.50679  0.04027
   -60.00  -0.08063  0.47825  0.03872
   -50.00  -0.09834  0.44229  0.03601
   -40.00  -0.10987  0.40347  0.03381
   -30.00  -0.11839  0.36673  0.03513
   -20.00  -0.13143  0.33658  0.04796
   -10.00  -0.05372  0.30923  0.02116
    -4.17  -0.01195  0.29330  -0.02258
    -3.17  0.00710  0.29328  -0.02291
    -2.12  0.02682  0.29327  -0.02318
    -1.08  0.04671  0.29327  -0.02348
    -0.05  0.06642  0.29328  -0.02365
    -0.01  0.06647  0.29328  -0.02365
     1.15  0.08976  0.29332  -0.02386
     2.30  0.11170  0.29335  -0.02404
     3.44  0.13371  0.29341  -0.02417
     4.59  0.15503  0.29345  -0.02414
     5.74  0.17567  0.29352  -0.02399
     6.89  0.19524  0.29362  -0.02363
     8.04  0.21130  0.29374  -0.02264
    10.66  0.21861  0.29585  -0.01762
    13.28  0.19134  0.31064  -0.01628
    15.90  0.18477  0.31980  -0.01770
    18.53  0.18898  0.32892  -0.01991
    21.15  0.18794  0.34037  -0.02351
    23.77  0.18233  0.34826  -0.02808
    26.40  0.17672  0.35615  -0.03265
    29.02  0.17111  0.36404  -0.03723
    31.64  0.16712  0.37305  -0.04059
    34.26  0.16398  0.38265  -0.04333
    36.89  0.16084  0.39224  -0.04607
    39.51  0.15770  0.40184  -0.04881
    42.13  0.15358  0.41188  -0.05116
    44.75  0.14926  0.42202  -0.05343
    47.38  0.14494  0.43216  -0.05570
    50.00  0.14062  0.44229  -0.05797
    60.00  0.11539  0.47825  -0.06571
    70.00  0.08163  0.50679  -0.07244
    80.00  0.04186  0.52422  -0.07797
    90.00  0.00008  0.52813  -0.08195
   100.00  -0.02916  0.52422  -0.08524
   110.00  -0.05707  0.50679  -0.08586
   120.00  -0.08063  0.47825  -0.08429
   130.00  -0.09834  0.44229  -0.08160
   140.00  -0.10987  0.40347  -0.07937
   150.00  -0.11839  0.36673  -0.08069
   160.00  -0.13176  0.33661  -0.09366
   170.00  -0.06576  0.31691  -0.08364
   180.00  0.00008  0.31005  -0.00008
EOT
