AeroDyn airfoil file.  Compatible with AeroDyn v13.0.
Interpolated thickness: 0.777

  1        Number of airfoil tables in this file
  9990     Reynolds number in millions.  For efficiency, make very large if only one table.
  0        Control setting
  10.6855  Stall angle (deg)
  -3.08006 Zero lift angle of attack (deg)
  2.18972  Cn slope for zero lift (dimensionless)
  0.52609  Cn at stall value for positive angle of attack
  -0.8     Cn at stall value for negative angle of attack
  -2.12    Angle of attack for minimum CD (deg)
  0.250384 Minimum CD value
  -180.00  0.00007  0.27984  -0.00007
  -170.00  0.11568  0.29190  0.11730
  -160.00  0.23158  0.32650  -0.04209
  -150.00  0.20811  0.37937  -0.01856
  -140.00  0.19314  0.44389  -0.00215
  -130.00  0.17290  0.51206  0.01372
  -120.00  0.14179  0.57520  0.02948
  -110.00  0.10042  0.62532  0.04409
  -100.00  0.05142  0.65592  0.05606
   -90.00  0.00007  0.66279  0.06392
   -80.00  -0.05128  0.65592  0.06973
   -70.00  -0.10028  0.62532  0.07079
   -60.00  -0.14165  0.57520  0.06806
   -50.00  -0.17275  0.51206  0.06331
   -40.00  -0.19300  0.44389  0.05944
   -30.00  -0.20796  0.37937  0.06175
   -20.00  -0.23085  0.32644  0.08429
   -10.00  -0.09441  0.27841  0.03722
    -4.17  -0.02106  0.25044  -0.03957
    -3.17  0.01239  0.25041  -0.04015
    -2.12  0.04702  0.25038  -0.04062
    -1.08  0.08194  0.25038  -0.04115
    -0.05  0.11656  0.25041  -0.04144
    -0.01  0.11664  0.25041  -0.04144
     1.15  0.15754  0.25048  -0.04182
     2.30  0.19607  0.25053  -0.04214
     3.46  0.23471  0.25063  -0.04236
     4.61  0.27215  0.25071  -0.04231
     5.76  0.30838  0.25082  -0.04204
     6.91  0.34274  0.25100  -0.04142
     8.06  0.37095  0.25121  -0.03968
    10.69  0.38378  0.25492  -0.03086
    13.31  0.33590  0.28089  -0.02850
    15.93  0.32436  0.29697  -0.03100
    18.55  0.33176  0.31299  -0.03488
    21.17  0.32992  0.33309  -0.04120
    23.79  0.32007  0.34694  -0.04923
    26.41  0.31022  0.36080  -0.05726
    29.03  0.30037  0.37465  -0.06529
    31.65  0.29338  0.39048  -0.07120
    34.27  0.28786  0.40733  -0.07601
    36.90  0.28234  0.42417  -0.08082
    39.52  0.27683  0.44102  -0.08563
    42.14  0.26959  0.45866  -0.08976
    44.76  0.26201  0.47646  -0.09374
    47.38  0.25442  0.49426  -0.09773
    50.00  0.24684  0.51206  -0.10171
    60.00  0.20253  0.57520  -0.11530
    70.00  0.14326  0.62532  -0.12712
    80.00  0.07343  0.65592  -0.13683
    90.00  0.00007  0.66279  -0.14382
   100.00  -0.05128  0.65592  -0.14960
   110.00  -0.10028  0.62532  -0.15068
   120.00  -0.14165  0.57520  -0.14793
   130.00  -0.17275  0.51206  -0.14320
   140.00  -0.19300  0.44389  -0.13930
   150.00  -0.20796  0.37937  -0.14162
   160.00  -0.23144  0.32650  -0.16439
   170.00  -0.11554  0.29190  -0.14678
   180.00  0.00007  0.27984  -0.00007
EOT
