AeroDyn airfoil file.  Compatible with AeroDyn v13.0.
Interpolated thickness: 0.893

  1        Number of airfoil tables in this file
  9990     Reynolds number in millions.  For efficiency, make very large if only one table.
  0        Control setting
  10.654   Stall angle (deg)
  -2.68248 Zero lift angle of attack (deg)
  1.22201  Cn slope for zero lift (dimensionless)
  0.284443 Cn at stall value for positive angle of attack
  -0.8     Cn at stall value for negative angle of attack
  -2.12    Angle of attack for minimum CD (deg)
  0.302202 Minimum CD value
  -180.00  0.00009  0.31634  -0.00009
  -170.00  0.05556  0.32212  0.05623
  -160.00  0.11117  0.33872  -0.02025
  -150.00  0.09991  0.36409  -0.00896
  -140.00  0.09273  0.39505  -0.00109
  -130.00  0.08301  0.42776  0.00653
  -120.00  0.06809  0.45806  0.01409
  -110.00  0.04824  0.48210  0.02110
  -100.00  0.02472  0.49679  0.02685
   -90.00  0.00009  0.50008  0.03062
   -80.00  -0.02455  0.49679  0.03341
   -70.00  -0.04806  0.48210  0.03391
   -60.00  -0.06792  0.45806  0.03261
   -50.00  -0.08284  0.42776  0.03032
   -40.00  -0.09255  0.39505  0.02847
   -30.00  -0.09973  0.36409  0.02958
   -20.00  -0.11072  0.33869  0.04039
   -10.00  -0.04525  0.31565  0.01781
    -4.17  -0.01005  0.30223  -0.01904
    -3.17  0.00600  0.30222  -0.01932
    -2.12  0.02261  0.30220  -0.01954
    -1.08  0.03937  0.30220  -0.01980
    -0.05  0.05598  0.30222  -0.01994
    -0.01  0.05602  0.30222  -0.01994
     1.15  0.07564  0.30225  -0.02012
     2.29  0.09413  0.30227  -0.02027
     3.44  0.11267  0.30232  -0.02038
     4.59  0.13063  0.30236  -0.02035
     5.74  0.14802  0.30241  -0.02023
     6.88  0.16451  0.30250  -0.01992
     8.03  0.17804  0.30260  -0.01909
    10.65  0.18420  0.30438  -0.01486
    13.28  0.16122  0.31684  -0.01373
    15.90  0.15569  0.32456  -0.01493
    18.52  0.15924  0.33224  -0.01679
    21.15  0.15836  0.34188  -0.01982
    23.77  0.15363  0.34853  -0.02367
    26.39  0.14890  0.35518  -0.02753
    29.02  0.14418  0.36183  -0.03138
    31.64  0.14082  0.36942  -0.03421
    34.26  0.13817  0.37751  -0.03652
    36.88  0.13553  0.38559  -0.03883
    39.51  0.13288  0.39367  -0.04114
    42.13  0.12941  0.40214  -0.04312
    44.75  0.12577  0.41068  -0.04503
    47.38  0.12213  0.41922  -0.04694
    50.00  0.11849  0.42776  -0.04886
    60.00  0.09723  0.45806  -0.05537
    70.00  0.06879  0.48210  -0.06105
    80.00  0.03528  0.49679  -0.06571
    90.00  0.00009  0.50008  -0.06906
   100.00  -0.02455  0.49679  -0.07183
   110.00  -0.04806  0.48210  -0.07235
   120.00  -0.06792  0.45806  -0.07103
   130.00  -0.08284  0.42776  -0.06876
   140.00  -0.09255  0.39505  -0.06689
   150.00  -0.09973  0.36409  -0.06800
   160.00  -0.11100  0.33872  -0.07893
   170.00  -0.05539  0.32212  -0.07048
   180.00  0.00009  0.31634  -0.00009
EOT
