AeroDyn airfoil file.  Compatible with AeroDyn v13.0.
Interpolated thickness: 0.609

  1        Number of airfoil tables in this file
  9990     Reynolds number in millions.  For efficiency, make very large if only one table.
  0        Control setting
  10.7311  Stall angle (deg)
  -3.34027 Zero lift angle of attack (deg)
  3.5463   Cn slope for zero lift (dimensionless)
  0.870943 Cn at stall value for positive angle of attack
  -0.8     Cn at stall value for negative angle of attack
  -2.12    Angle of attack for minimum CD (deg)
  0.175336 Minimum CD value
  -180.00  0.00005  0.22699  -0.00005
  -170.00  0.20275  0.24813  0.20574
  -160.00  0.40597  0.30879  -0.07372
  -150.00  0.36481  0.40150  -0.03246
  -140.00  0.33857  0.51463  -0.00370
  -130.00  0.30307  0.63414  0.02413
  -120.00  0.24854  0.74486  0.05176
  -110.00  0.17600  0.83273  0.07738
  -100.00  0.09008  0.88639  0.09837
   -90.00  0.00005  0.89843  0.11216
   -80.00  -0.08998  0.88639  0.12234
   -70.00  -0.17590  0.83273  0.12420
   -60.00  -0.24844  0.74486  0.11941
   -50.00  -0.30298  0.63414  0.11108
   -40.00  -0.33848  0.51463  0.10429
   -30.00  -0.36471  0.40150  0.10835
   -20.00  -0.40484  0.30869  0.14786
   -10.00  -0.16561  0.22447  0.06534
    -4.17  -0.03699  0.17544  -0.06930
    -3.17  0.02166  0.17539  -0.07033
    -2.12  0.08236  0.17534  -0.07115
    -1.08  0.14359  0.17534  -0.07207
    -0.05  0.20429  0.17539  -0.07259
    -0.02  0.20444  0.17539  -0.07259
     1.16  0.27615  0.17550  -0.07325
     2.32  0.34370  0.17559  -0.07382
     3.48  0.41146  0.17577  -0.07420
     4.64  0.47709  0.17591  -0.07411
     5.80  0.54063  0.17610  -0.07364
     6.95  0.60088  0.17642  -0.07254
     8.11  0.65034  0.17678  -0.06950
    10.73  0.67282  0.18329  -0.05403
    13.35  0.58888  0.22883  -0.04990
    15.97  0.56865  0.25702  -0.05428
    18.58  0.58163  0.28510  -0.06108
    21.20  0.57840  0.32035  -0.07217
    23.82  0.56113  0.34464  -0.08625
    26.44  0.54386  0.36893  -0.10032
    29.06  0.52658  0.39322  -0.11440
    31.67  0.51432  0.42097  -0.12476
    34.29  0.50465  0.45051  -0.13320
    36.91  0.49497  0.48006  -0.14164
    39.53  0.48530  0.50960  -0.15007
    42.15  0.47262  0.54052  -0.15730
    44.76  0.45932  0.57173  -0.16429
    47.38  0.44602  0.60294  -0.17128
    50.00  0.43272  0.63414  -0.17826
    60.00  0.35504  0.74486  -0.20208
    70.00  0.25111  0.83273  -0.22282
    80.00  0.12867  0.88639  -0.23984
    90.00  0.00005  0.89843  -0.25209
   100.00  -0.08998  0.88639  -0.26222
   110.00  -0.17590  0.83273  -0.26413
   120.00  -0.24844  0.74486  -0.25929
   130.00  -0.30298  0.63414  -0.25101
   140.00  -0.33848  0.51463  -0.24417
   150.00  -0.36471  0.40150  -0.24823
   160.00  -0.40587  0.30879  -0.28815
   170.00  -0.20265  0.24813  -0.25729
   180.00  0.00005  0.22699  -0.00005
EOT
