AeroDyn airfoil file.  Compatible with AeroDyn v13.0.
Interpolated thickness: 0.426

  1        Number of airfoil tables in this file
  9990     Reynolds number in millions.  For efficiency, make very large if only one table.
  0        Control setting
  10.7808  Stall angle (deg)
  -3.48797 Zero lift angle of attack (deg)
  4.99591  Cn slope for zero lift (dimensionless)
  1.24416  Cn at stall value for positive angle of attack
  -0.8     Cn at stall value for negative angle of attack
  -2.12    Angle of attack for minimum CD (deg)
  0.0935882 Minimum CD value
  -180.00  0.00002  0.16942  -0.00002
  -170.00  0.29760  0.20046  0.30208
  -160.00  0.59593  0.28950  -0.10818
  -150.00  0.53551  0.42560  -0.04761
  -140.00  0.49699  0.59168  -0.00539
  -130.00  0.44487  0.76713  0.03547
  -120.00  0.36482  0.92966  0.07603
  -110.00  0.25832  1.05866  0.11364
  -100.00  0.13220  1.13744  0.14446
   -90.00  0.00002  1.15511  0.16470
   -80.00  -0.13215  1.13744  0.17965
   -70.00  -0.25828  1.05866  0.18237
   -60.00  -0.36477  0.92966  0.17535
   -50.00  -0.44483  0.76713  0.16311
   -40.00  -0.49694  0.59168  0.15314
   -30.00  -0.53546  0.42560  0.15911
   -20.00  -0.59437  0.28935  0.21711
   -10.00  -0.24317  0.16572  0.09597
    -4.17  -0.05435  0.09374  -0.10168
    -3.17  0.03175  0.09366  -0.10319
    -2.12  0.12087  0.09359  -0.10440
    -1.08  0.21074  0.09359  -0.10576
    -0.05  0.29986  0.09366  -0.10652
    -0.04  0.30007  0.09366  -0.10652
     1.17  0.40535  0.09383  -0.10749
     2.33  0.50451  0.09396  -0.10832
     3.50  0.60399  0.09422  -0.10888
     4.67  0.70034  0.09443  -0.10874
     5.83  0.79362  0.09471  -0.10806
     7.00  0.88206  0.09519  -0.10645
     8.17  0.95468  0.09570  -0.10199
    10.78  0.98768  0.10527  -0.07927
    13.40  0.86445  0.17212  -0.07321
    16.01  0.83475  0.21350  -0.07964
    18.62  0.85380  0.25472  -0.08963
    21.24  0.84906  0.30647  -0.10590
    23.85  0.82371  0.34213  -0.12656
    26.47  0.79835  0.37779  -0.14723
    29.08  0.77299  0.41345  -0.16790
    31.70  0.75499  0.45419  -0.18311
    34.31  0.74079  0.49756  -0.19549
    36.93  0.72659  0.54093  -0.20788
    39.54  0.71239  0.58429  -0.22026
    42.16  0.69377  0.62969  -0.23088
    44.77  0.67425  0.67550  -0.24114
    47.39  0.65473  0.72132  -0.25139
    50.00  0.63520  0.76713  -0.26165
    60.00  0.52116  0.92966  -0.29662
    70.00  0.36859  1.05866  -0.32705
    80.00  0.18884  1.13744  -0.35205
    90.00  0.00002  1.15511  -0.37003
   100.00  -0.13215  1.13744  -0.38491
   110.00  -0.25828  1.05866  -0.38770
   120.00  -0.36477  0.92966  -0.38060
   130.00  -0.44483  0.76713  -0.36844
   140.00  -0.49694  0.59168  -0.35840
   150.00  -0.53546  0.42560  -0.36436
   160.00  -0.59588  0.28950  -0.42297
   170.00  -0.29755  0.20046  -0.37766
   180.00  0.00002  0.16942  -0.00002
EOT
