AeroDyn airfoil file.  Compatible with AeroDyn v13.0.
Interpolated thickness: 0.754

  1        Number of airfoil tables in this file
  9990     Reynolds number in millions.  For efficiency, make very large if only one table.
  0        Control setting
  10.6918  Stall angle (deg)
  -3.13078 Zero lift angle of attack (deg)
  2.37692  Cn slope for zero lift (dimensionless)
  0.57343  Cn at stall value for positive angle of attack
  -0.8     Cn at stall value for negative angle of attack
  -2.12    Angle of attack for minimum CD (deg)
  0.240109 Minimum CD value
  -180.00  0.00007  0.27261  -0.00007
  -170.00  0.12760  0.28591  0.12941
  -160.00  0.25545  0.32407  -0.04642
  -150.00  0.22956  0.38240  -0.02046
  -140.00  0.21305  0.45358  -0.00237
  -130.00  0.19072  0.52877  0.01515
  -120.00  0.15641  0.59843  0.03253
  -110.00  0.11077  0.65371  0.04865
  -100.00  0.05671  0.68747  0.06185
   -90.00  0.00007  0.69505  0.07053
   -80.00  -0.05658  0.68747  0.07694
   -70.00  -0.11063  0.65371  0.07810
   -60.00  -0.15627  0.59843  0.07509
   -50.00  -0.19058  0.52877  0.06985
   -40.00  -0.21292  0.45358  0.06558
   -30.00  -0.22942  0.38240  0.06813
   -20.00  -0.25467  0.32401  0.09299
   -10.00  -0.10416  0.27102  0.04107
    -4.17  -0.02324  0.24017  -0.04364
    -3.17  0.01366  0.24014  -0.04428
    -2.12  0.05186  0.24011  -0.04480
    -1.08  0.09038  0.24011  -0.04538
    -0.05  0.12857  0.24014  -0.04571
    -0.02  0.12866  0.24014  -0.04571
     1.15  0.17378  0.24021  -0.04612
     2.31  0.21628  0.24027  -0.04648
     3.46  0.25891  0.24038  -0.04672
     4.61  0.30020  0.24047  -0.04666
     5.77  0.34018  0.24059  -0.04637
     6.92  0.37808  0.24079  -0.04568
     8.07  0.40920  0.24102  -0.04377
    10.69  0.42335  0.24512  -0.03403
    13.31  0.37054  0.27377  -0.03143
    15.93  0.35781  0.29150  -0.03419
    18.55  0.36597  0.30917  -0.03847
    21.17  0.36394  0.33134  -0.04544
    23.79  0.35307  0.34663  -0.05430
    26.42  0.34221  0.36191  -0.06316
    29.04  0.33134  0.37719  -0.07201
    31.66  0.32362  0.39465  -0.07853
    34.28  0.31754  0.41324  -0.08384
    36.90  0.31145  0.43183  -0.08915
    39.52  0.30537  0.45041  -0.09446
    42.14  0.29739  0.46987  -0.09901
    44.76  0.28902  0.48950  -0.10340
    47.38  0.28065  0.50914  -0.10780
    50.00  0.27229  0.52877  -0.11219
    60.00  0.22341  0.59843  -0.12718
    70.00  0.15803  0.65371  -0.14022
    80.00  0.08099  0.68747  -0.15094
    90.00  0.00007  0.69505  -0.15864
   100.00  -0.05658  0.68747  -0.16502
   110.00  -0.11063  0.65371  -0.16621
   120.00  -0.15627  0.59843  -0.16317
   130.00  -0.19058  0.52877  -0.15796
   140.00  -0.21292  0.45358  -0.15366
   150.00  -0.22942  0.38240  -0.15621
   160.00  -0.25532  0.32407  -0.18133
   170.00  -0.12746  0.28591  -0.16191
   180.00  0.00007  0.27261  -0.00007
EOT
