AeroDyn airfoil file.  Compatible with AeroDyn v13.0.
Interpolated thickness: 0.178

  1        Number of airfoil tables in this file
  9990     Reynolds number in millions.  For efficiency, make very large if only one table.
  0        Control setting
  13.6142  Stall angle (deg)
  -5.33058 Zero lift angle of attack (deg)
  6.12494  Cn slope for zero lift (dimensionless)
  2.0252   Cn at stall value for positive angle of attack
  -0.8     Cn at stall value for negative angle of attack
  -4.09    Angle of attack for minimum CD (deg)
  0.00706766 Minimum CD value
  -180.00  0.00000  0.18185  0.00000
  -170.00  0.40020  0.22179  0.40000
  -160.00  0.80140  0.33651  -0.13824
  -150.00  0.71077  0.51148  -0.06203
  -140.00  0.65977  0.72429  -0.00692
  -130.00  0.58989  0.94783  0.04638
  -120.00  0.48389  1.15293  0.09840
  -110.00  0.34200  1.31257  0.14519
  -100.00  0.17500  1.40491  0.18200
   -90.00  0.00000  1.41600  0.20393
   -80.00  -0.17500  1.40491  0.22488
   -70.00  -0.34200  1.31257  0.22981
   -60.00  -0.48389  1.15293  0.22157
   -50.00  -0.58989  0.94783  0.20590
   -40.00  -0.65977  0.72429  0.19217
   -30.00  -0.71077  0.51148  0.19768
   -20.00  -0.80029  0.33622  0.27165
   -10.00  -0.27063  0.10485  0.06032
    -6.04  -0.08205  0.01331  -0.13493
    -5.04  0.03268  0.00887  -0.14936
    -4.09  0.13187  0.00707  -0.15596
    -3.02  0.24764  0.00714  -0.15726
    -2.02  0.35439  0.00722  -0.15797
    -1.03  0.46034  0.00731  -0.15852
    -0.01  0.56886  0.00750  -0.15951
     0.75  0.65165  0.00770  -0.15921
     1.51  0.73238  0.00797  -0.15947
     2.26  0.81190  0.00832  -0.16023
     3.01  0.89036  0.00864  -0.15961
     3.76  0.96766  0.00898  -0.15891
     4.52  1.04169  0.00931  -0.15776
     6.79  1.20773  0.01357  -0.14654
     9.07  1.33256  0.02373  -0.13423
    11.34  1.45289  0.03661  -0.12472
    13.61  1.49200  0.06874  -0.11610
    15.89  1.31872  0.20068  -0.13006
    18.16  1.23527  0.27464  -0.13907
    20.44  1.14185  0.34415  -0.17116
    22.71  1.11183  0.38397  -0.19346
    24.98  1.08181  0.42378  -0.21576
    27.26  1.05180  0.46360  -0.23807
    29.53  1.02255  0.50396  -0.25980
    31.81  1.00239  0.55007  -0.27578
    34.08  0.98581  0.59845  -0.28951
    36.36  0.96923  0.64683  -0.30324
    38.63  0.95266  0.69521  -0.31697
    40.90  0.93357  0.74458  -0.32978
    43.18  0.91065  0.79539  -0.34120
    45.45  0.88773  0.84620  -0.35261
    47.73  0.86481  0.89701  -0.36403
    50.00  0.84189  0.94783  -0.37545
    60.00  0.69089  1.15293  -0.41927
    70.00  0.48889  1.31257  -0.45629
    80.00  0.25000  1.40491  -0.48514
    90.00  0.00000  1.41600  -0.50407
   100.00  -0.17500  1.40491  -0.52501
   110.00  -0.34200  1.31257  -0.52995
   120.00  -0.48389  1.15293  -0.52170
   130.00  -0.58989  0.94783  -0.50605
   140.00  -0.65977  0.72429  -0.49230
   150.00  -0.71077  0.51148  -0.49781
   160.00  -0.80140  0.33651  -0.57213
   170.00  -0.40020  0.22179  -0.50000
   180.00  0.00000  0.18185  0.00000
EOT
