AeroDyn airfoil file.  Compatible with AeroDyn v13.0.
Interpolated thickness: 0.209

  1        Number of airfoil tables in this file
  9990     Reynolds number in millions.  For efficiency, make very large if only one table.
  0        Control setting
  8.55041  Stall angle (deg)
  -4.39603 Zero lift angle of attack (deg)
  6.34011  Cn slope for zero lift (dimensionless)
  1.4326   Cn at stall value for positive angle of attack
  -0.8     Cn at stall value for negative angle of attack
  -2.02    Angle of attack for minimum CD (deg)
  0.00886143 Minimum CD value
  -180.00  0.00000  0.14637  0.00000
  -170.00  0.39710  0.18690  0.40000
  -160.00  0.79520  0.30320  -0.14072
  -150.00  0.70989  0.48079  -0.06251
  -140.00  0.65889  0.69715  -0.00701
  -130.00  0.58944  0.92506  0.04669
  -120.00  0.48344  1.13521  0.09955
  -110.00  0.34200  1.30043  0.14784
  -100.00  0.17500  1.39876  0.18665
   -90.00  0.00000  1.41600  0.21101
   -80.00  -0.17500  1.39876  0.23139
   -70.00  -0.34200  1.30043  0.23565
   -60.00  -0.48344  1.13521  0.22689
   -50.00  -0.58944  0.92506  0.21095
   -40.00  -0.65889  0.69715  0.19749
   -30.00  -0.70989  0.48079  0.20419
   -20.00  -0.79364  0.30296  0.27957
   -10.00  -0.29631  0.10542  0.09371
    -6.04  -0.11712  0.02729  -0.09279
    -5.04  -0.03831  0.01690  -0.12245
    -4.09  0.03450  0.00888  -0.14536
    -3.02  0.15325  0.00886  -0.14705
    -2.02  0.26292  0.00886  -0.14817
    -1.03  0.37253  0.00891  -0.14928
    -0.03  0.48307  0.00905  -0.15026
     1.06  0.60507  0.00927  -0.15084
     2.12  0.72219  0.00954  -0.15160
     3.18  0.83851  0.00991  -0.15226
     4.25  0.95005  0.01024  -0.15150
     5.31  1.05816  0.01074  -0.15012
     6.37  1.15284  0.01131  -0.14638
     8.55  1.25694  0.01773  -0.12842
    10.73  1.25213  0.04968  -0.11440
    12.91  1.28902  0.08658  -0.11213
    15.10  1.29567  0.12792  -0.11151
    17.28  1.22458  0.21227  -0.12435
    19.46  1.18308  0.27878  -0.13689
    21.64  1.12293  0.33242  -0.16388
    23.82  1.09450  0.37121  -0.18597
    26.00  1.06606  0.41001  -0.20807
    28.18  1.03762  0.44881  -0.23017
    30.37  1.01296  0.49021  -0.24946
    32.55  0.99536  0.53624  -0.26401
    34.73  0.97955  0.58340  -0.27744
    36.91  0.96374  0.63055  -0.29086
    39.09  0.94793  0.67771  -0.30429
    41.27  0.92865  0.72638  -0.31636
    43.46  0.90685  0.77605  -0.32750
    45.64  0.88504  0.82572  -0.33864
    47.82  0.86324  0.87539  -0.34979
    50.00  0.84144  0.92506  -0.36093
    60.00  0.69044  1.13521  -0.40599
    70.00  0.48844  1.30043  -0.44465
    80.00  0.25000  1.39876  -0.47562
    90.00  0.00000  1.41600  -0.49699
   100.00  -0.17500  1.39876  -0.51731
   110.00  -0.34200  1.30043  -0.52163
   120.00  -0.48344  1.13521  -0.51280
   130.00  -0.58944  0.92506  -0.49692
   140.00  -0.65889  0.69715  -0.48340
   150.00  -0.70989  0.48079  -0.49011
   160.00  -0.79520  0.30320  -0.56607
   170.00  -0.39710  0.18690  -0.50000
   180.00  0.00000  0.14637  0.00000
EOT
