AeroDyn airfoil file.  Compatible with AeroDyn v13.0.
Interpolated thickness: 0.766

  1        Number of airfoil tables in this file
  9990     Reynolds number in millions.  For efficiency, make very large if only one table.
  0        Control setting
  10.6885  Stall angle (deg)
  -3.10525 Zero lift angle of attack (deg)
  2.27931  Cn slope for zero lift (dimensionless)
  0.548736 Cn at stall value for positive angle of attack
  -0.8     Cn at stall value for negative angle of attack
  -2.12    Angle of attack for minimum CD (deg)
  0.24547  Minimum CD value
  -180.00  0.00007  0.27638  -0.00007
  -170.00  0.12138  0.28904  0.12309
  -160.00  0.24300  0.32534  -0.04416
  -150.00  0.21837  0.38082  -0.01947
  -140.00  0.20266  0.44853  -0.00226
  -130.00  0.18142  0.52005  0.01440
  -120.00  0.14878  0.58631  0.03094
  -110.00  0.10537  0.63890  0.04627
  -100.00  0.05395  0.67101  0.05883
   -90.00  0.00007  0.67822  0.06708
   -80.00  -0.05381  0.67101  0.07318
   -70.00  -0.10523  0.63890  0.07429
   -60.00  -0.14864  0.58631  0.07142
   -50.00  -0.18128  0.52005  0.06644
   -40.00  -0.20253  0.44853  0.06237
   -30.00  -0.21823  0.38082  0.06480
   -20.00  -0.24224  0.32528  0.08845
   -10.00  -0.09907  0.27487  0.03906
    -4.17  -0.02210  0.24553  -0.04151
    -3.17  0.01300  0.24550  -0.04213
    -2.12  0.04933  0.24547  -0.04262
    -1.08  0.08597  0.24547  -0.04317
    -0.05  0.12230  0.24550  -0.04348
    -0.01  0.12239  0.24550  -0.04348
     1.15  0.16531  0.24557  -0.04388
     2.31  0.20573  0.24562  -0.04422
     3.46  0.24629  0.24573  -0.04445
     4.61  0.28556  0.24581  -0.04439
     5.76  0.32359  0.24593  -0.04411
     6.92  0.35964  0.24612  -0.04345
     8.07  0.38925  0.24633  -0.04163
    10.69  0.40270  0.25023  -0.03237
    13.31  0.35247  0.27748  -0.02991
    15.93  0.34036  0.29436  -0.03252
    18.55  0.34812  0.31116  -0.03660
    21.17  0.34619  0.33225  -0.04323
    23.79  0.33586  0.34679  -0.05165
    26.41  0.32552  0.36133  -0.06008
    29.03  0.31518  0.37587  -0.06851
    31.65  0.30784  0.39247  -0.07471
    34.28  0.30205  0.41015  -0.07975
    36.90  0.29627  0.42783  -0.08480
    39.52  0.29048  0.44551  -0.08985
    42.14  0.28289  0.46402  -0.09418
    44.76  0.27493  0.48270  -0.09836
    47.38  0.26697  0.50137  -0.10254
    50.00  0.25901  0.52005  -0.10672
    60.00  0.21252  0.58631  -0.12098
    70.00  0.15032  0.63890  -0.13339
    80.00  0.07704  0.67101  -0.14358
    90.00  0.00007  0.67822  -0.15091
   100.00  -0.05381  0.67101  -0.15697
   110.00  -0.10523  0.63890  -0.15811
   120.00  -0.14864  0.58631  -0.15522
   130.00  -0.18128  0.52005  -0.15026
   140.00  -0.20253  0.44853  -0.14617
   150.00  -0.21823  0.38082  -0.14860
   160.00  -0.24286  0.32534  -0.17249
   170.00  -0.12124  0.28904  -0.15402
   180.00  0.00007  0.27638  -0.00007
EOT
