AeroDyn airfoil file.  Compatible with AeroDyn v13.0.
Interpolated thickness: 0.857

  1        Number of airfoil tables in this file
  9990     Reynolds number in millions.  For efficiency, make very large if only one table.
  0        Control setting
  10.6638  Stall angle (deg)
  -2.89246 Zero lift angle of attack (deg)
  1.51389  Cn slope for zero lift (dimensionless)
  0.35819  Cn at stall value for positive angle of attack
  -0.8     Cn at stall value for negative angle of attack
  -2.12    Angle of attack for minimum CD (deg)
  0.28612  Minimum CD value
  -180.00  0.00008  0.30501  -0.00008
  -170.00  0.07422  0.31274  0.07518
  -160.00  0.14854  0.33493  -0.02703
  -150.00  0.13349  0.36883  -0.01194
  -140.00  0.12389  0.41021  -0.00142
  -130.00  0.11091  0.45392  0.00876
  -120.00  0.09096  0.49441  0.01887
  -110.00  0.06443  0.52655  0.02824
  -100.00  0.03301  0.54617  0.03591
   -90.00  0.00008  0.55058  0.04096
   -80.00  -0.03285  0.54617  0.04468
   -70.00  -0.06427  0.52655  0.04536
   -60.00  -0.09080  0.49441  0.04361
   -50.00  -0.11074  0.45392  0.04056
   -40.00  -0.12373  0.41021  0.03808
   -30.00  -0.13332  0.36883  0.03956
   -20.00  -0.14800  0.33489  0.05401
   -10.00  -0.06051  0.30409  0.02383
    -4.17  -0.01347  0.28616  -0.02541
    -3.17  0.00798  0.28614  -0.02578
    -2.12  0.03019  0.28612  -0.02608
    -1.08  0.05258  0.28612  -0.02642
    -0.05  0.07478  0.28614  -0.02661
    -0.01  0.07483  0.28614  -0.02661
     1.15  0.10106  0.28618  -0.02685
     2.30  0.12576  0.28621  -0.02706
     3.45  0.15055  0.28628  -0.02720
     4.60  0.17455  0.28633  -0.02717
     5.74  0.19779  0.28640  -0.02700
     6.89  0.21982  0.28652  -0.02659
     8.04  0.23791  0.28665  -0.02548
    10.66  0.24613  0.28903  -0.01982
    13.29  0.21543  0.30568  -0.01831
    15.91  0.20804  0.31599  -0.01992
    18.53  0.21278  0.32626  -0.02240
    21.15  0.21160  0.33915  -0.02646
    23.78  0.20528  0.34804  -0.03161
    26.40  0.19897  0.35692  -0.03675
    29.02  0.19265  0.36581  -0.04190
    31.64  0.18817  0.37596  -0.04569
    34.27  0.18463  0.38676  -0.04878
    36.89  0.18109  0.39757  -0.05186
    39.51  0.17755  0.40837  -0.05495
    42.13  0.17291  0.41968  -0.05759
    44.76  0.16805  0.43109  -0.06015
    47.38  0.16319  0.44251  -0.06270
    50.00  0.15832  0.45392  -0.06526
    60.00  0.12991  0.49441  -0.07397
    70.00  0.09190  0.52655  -0.08155
    80.00  0.04712  0.54617  -0.08778
    90.00  0.00008  0.55058  -0.09226
   100.00  -0.03285  0.54617  -0.09597
   110.00  -0.06427  0.52655  -0.09666
   120.00  -0.09080  0.49441  -0.09489
   130.00  -0.11074  0.45392  -0.09186
   140.00  -0.12373  0.41021  -0.08936
   150.00  -0.13332  0.36883  -0.09085
   160.00  -0.14838  0.33493  -0.10545
   170.00  -0.07405  0.31274  -0.09416
   180.00  0.00008  0.30501  -0.00008
EOT
