AeroDyn airfoil file.  Compatible with AeroDyn v13.0.
Interpolated thickness: 0.524

  1        Number of airfoil tables in this file
  9990     Reynolds number in millions.  For efficiency, make very large if only one table.
  0        Control setting
  10.7542  Stall angle (deg)
  -3.41787 Zero lift angle of attack (deg)
  4.22322  Cn slope for zero lift (dimensionless)
  1.04461  Cn at stall value for positive angle of attack
  -0.8     Cn at stall value for negative angle of attack
  -2.12    Angle of attack for minimum CD (deg)
  0.137366 Minimum CD value
  -180.00  0.00004  0.20025  -0.00004
  -170.00  0.24681  0.22599  0.25049
  -160.00  0.49420  0.29983  -0.08973
  -150.00  0.44410  0.41269  -0.03950
  -140.00  0.41215  0.55042  -0.00448
  -130.00  0.36894  0.69591  0.02940
  -120.00  0.30255  0.83070  0.06303
  -110.00  0.21424  0.93767  0.09422
  -100.00  0.10964  1.00300  0.11978
   -90.00  0.00004  1.01765  0.13656
   -80.00  -0.10957  1.00300  0.14896
   -70.00  -0.21416  0.93767  0.15122
   -60.00  -0.30247  0.83070  0.14539
   -50.00  -0.36886  0.69591  0.13525
   -40.00  -0.41208  0.55042  0.12698
   -30.00  -0.44402  0.41269  0.13193
   -20.00  -0.49287  0.29971  0.18003
   -10.00  -0.20164  0.19718  0.07957
    -4.17  -0.04506  0.13749  -0.08434
    -3.17  0.02634  0.13743  -0.08559
    -2.12  0.10025  0.13737  -0.08659
    -1.08  0.17478  0.13737  -0.08772
    -0.05  0.24868  0.13743  -0.08835
    -0.03  0.24886  0.13743  -0.08835
     1.16  0.33616  0.13757  -0.08915
     2.33  0.41839  0.13768  -0.08984
     3.49  0.50089  0.13789  -0.09031
     4.65  0.58079  0.13807  -0.09019
     5.81  0.65814  0.13830  -0.08963
     6.98  0.73148  0.13869  -0.08829
     8.14  0.79170  0.13912  -0.08459
    10.75  0.81907  0.14705  -0.06575
    13.37  0.71688  0.20249  -0.06073
    15.99  0.69225  0.23681  -0.06606
    18.60  0.70805  0.27099  -0.07434
    21.22  0.70412  0.31390  -0.08783
    23.84  0.68309  0.34347  -0.10497
    26.45  0.66206  0.37304  -0.12211
    29.07  0.64104  0.40262  -0.13925
    31.69  0.62611  0.43640  -0.15186
    34.30  0.61433  0.47236  -0.16213
    36.92  0.60256  0.50833  -0.17240
    39.53  0.59078  0.54429  -0.18267
    42.15  0.57534  0.58194  -0.19148
    44.77  0.55915  0.61993  -0.19998
    47.38  0.54296  0.65792  -0.20849
    50.00  0.52677  0.69591  -0.21699
    60.00  0.43220  0.83070  -0.24599
    70.00  0.30568  0.93767  -0.27123
    80.00  0.15662  1.00300  -0.29196
    90.00  0.00004  1.01765  -0.30687
   100.00  -0.10957  1.00300  -0.31921
   110.00  -0.21416  0.93767  -0.32153
   120.00  -0.30247  0.83070  -0.31564
   130.00  -0.36886  0.69591  -0.30555
   140.00  -0.41208  0.55042  -0.29722
   150.00  -0.44402  0.41269  -0.30217
   160.00  -0.49413  0.29983  -0.35077
   170.00  -0.24673  0.22599  -0.31320
   180.00  0.00004  0.20025  -0.00004
EOT
