AeroDyn airfoil file.  Compatible with AeroDyn v13.0.
Interpolated thickness: 0.799

  1        Number of airfoil tables in this file
  9990     Reynolds number in millions.  For efficiency, make very large if only one table.
  0        Control setting
  10.6795  Stall angle (deg)
  -3.10347 Zero lift angle of attack (deg)
  1.98246  Cn slope for zero lift (dimensionless)
  0.476898 Cn at stall value for positive angle of attack
  -0.8     Cn at stall value for negative angle of attack
  -2.12    Angle of attack for minimum CD (deg)
  0.260211 Minimum CD value
  -180.00  0.00007  0.28676  -0.00007
  -170.00  0.10428  0.29763  0.10572
  -160.00  0.20874  0.32882  -0.03795
  -150.00  0.18759  0.37647  -0.01674
  -140.00  0.17410  0.43463  -0.00195
  -130.00  0.15585  0.49607  0.01236
  -120.00  0.12781  0.55298  0.02656
  -110.00  0.09052  0.59816  0.03973
  -100.00  0.04636  0.62574  0.05052
   -90.00  0.00007  0.63193  0.05761
   -80.00  -0.04621  0.62574  0.06284
   -70.00  -0.09038  0.59816  0.06380
   -60.00  -0.12767  0.55298  0.06134
   -50.00  -0.15570  0.49607  0.05705
   -40.00  -0.17395  0.43463  0.05356
   -30.00  -0.18744  0.37647  0.05565
   -20.00  -0.20807  0.32876  0.07596
   -10.00  -0.08509  0.28547  0.03354
    -4.17  -0.01897  0.26026  -0.03567
    -3.17  0.01118  0.26024  -0.03620
    -2.12  0.04239  0.26021  -0.03662
    -1.08  0.07386  0.26021  -0.03710
    -0.05  0.10507  0.26024  -0.03736
    -0.01  0.10514  0.26024  -0.03737
     1.15  0.14201  0.26030  -0.03770
     2.30  0.17673  0.26034  -0.03799
     3.45  0.21157  0.26043  -0.03819
     4.60  0.24531  0.26051  -0.03814
     5.76  0.27797  0.26060  -0.03791
     6.91  0.30894  0.26077  -0.03734
     8.06  0.33437  0.26095  -0.03578
    10.68  0.34592  0.26430  -0.02782
    13.30  0.30277  0.28771  -0.02570
    15.92  0.29237  0.30220  -0.02795
    18.54  0.29904  0.31664  -0.03145
    21.17  0.29738  0.33476  -0.03715
    23.79  0.28851  0.34724  -0.04438
    26.41  0.27963  0.35973  -0.05162
    29.03  0.27075  0.37222  -0.05886
    31.65  0.26444  0.38648  -0.06418
    34.27  0.25947  0.40167  -0.06852
    36.89  0.25450  0.41686  -0.07286
    39.51  0.24953  0.43204  -0.07720
    42.14  0.24301  0.44794  -0.08091
    44.76  0.23617  0.46398  -0.08450
    47.38  0.22933  0.48003  -0.08810
    50.00  0.22250  0.49607  -0.09169
    60.00  0.18256  0.55298  -0.10393
    70.00  0.12914  0.59816  -0.11459
    80.00  0.06619  0.62574  -0.12334
    90.00  0.00007  0.63193  -0.12964
   100.00  -0.04621  0.62574  -0.13485
   110.00  -0.09038  0.59816  -0.13583
   120.00  -0.12767  0.55298  -0.13334
   130.00  -0.15570  0.49607  -0.12908
   140.00  -0.17395  0.43463  -0.12557
   150.00  -0.18744  0.37647  -0.12766
   160.00  -0.20860  0.32882  -0.14818
   170.00  -0.10413  0.29763  -0.13231
   180.00  0.00007  0.28676  -0.00007
EOT
