AeroDyn airfoil file.  Compatible with AeroDyn v13.0.
Interpolated thickness: 0.972

  1        Number of airfoil tables in this file
  9990     Reynolds number in millions.  For efficiency, make very large if only one table.
  0        Control setting
  10.6326  Stall angle (deg)
  -1.49017 Zero lift angle of attack (deg)
  0.578659 Cn slope for zero lift (dimensionless)
  0.122434 Cn at stall value for positive angle of attack
  -0.8     Cn at stall value for negative angle of attack
  -2.12    Angle of attack for minimum CD (deg)
  0.337492 Minimum CD value
  -180.00  0.00010  0.34119  -0.00010
  -170.00  0.01461  0.34271  0.01464
  -160.00  0.02916  0.34705  -0.00537
  -150.00  0.02622  0.35369  -0.00242
  -140.00  0.02434  0.36179  -0.00036
  -130.00  0.02180  0.37035  0.00164
  -120.00  0.01789  0.37828  0.00361
  -110.00  0.01270  0.38457  0.00545
  -100.00  0.00654  0.38841  0.00695
   -90.00  0.00010  0.38927  0.00794
   -80.00  -0.00635  0.38841  0.00867
   -70.00  -0.01250  0.38457  0.00880
   -60.00  -0.01770  0.37828  0.00846
   -50.00  -0.02160  0.37035  0.00786
   -40.00  -0.02415  0.36179  0.00738
   -30.00  -0.02602  0.35369  0.00767
   -20.00  -0.02890  0.34704  0.01050
   -10.00  -0.01177  0.34101  0.00459
    -4.17  -0.00256  0.33750  -0.00506
    -3.17  0.00164  0.33750  -0.00513
    -2.12  0.00599  0.33749  -0.00519
    -1.08  0.01038  0.33749  -0.00525
    -0.05  0.01472  0.33750  -0.00529
    -0.00  0.01473  0.33750  -0.00529
     1.14  0.01987  0.33750  -0.00534
     2.29  0.02471  0.33751  -0.00538
     3.43  0.02956  0.33752  -0.00541
     4.58  0.03426  0.33753  -0.00540
     5.72  0.03881  0.33755  -0.00537
     6.86  0.04312  0.33757  -0.00529
     8.01  0.04666  0.33760  -0.00507
    10.63  0.04827  0.33806  -0.00396
    13.26  0.04226  0.34132  -0.00367
    15.88  0.04081  0.34334  -0.00398
    18.51  0.04174  0.34535  -0.00447
    21.13  0.04151  0.34788  -0.00526
    23.76  0.04028  0.34962  -0.00627
    26.38  0.03904  0.35136  -0.00728
    29.00  0.03780  0.35310  -0.00829
    31.63  0.03692  0.35508  -0.00903
    34.25  0.03623  0.35720  -0.00963
    36.88  0.03554  0.35931  -0.01024
    39.50  0.03485  0.36143  -0.01084
    42.13  0.03394  0.36364  -0.01136
    44.75  0.03299  0.36588  -0.01186
    47.38  0.03203  0.36811  -0.01236
    50.00  0.03108  0.37035  -0.01286
    60.00  0.02552  0.37828  -0.01456
    70.00  0.01808  0.38457  -0.01605
    80.00  0.00931  0.38841  -0.01727
    90.00  0.00010  0.38927  -0.01815
   100.00  -0.00635  0.38841  -0.01887
   110.00  -0.01250  0.38457  -0.01901
   120.00  -0.01770  0.37828  -0.01866
   130.00  -0.02160  0.37035  -0.01807
   140.00  -0.02415  0.36179  -0.01758
   150.00  -0.02602  0.35369  -0.01787
   160.00  -0.02897  0.34705  -0.02073
   170.00  -0.01442  0.34271  -0.01852
   180.00  0.00010  0.34119  -0.00010
EOT
