AeroDyn airfoil file.  Compatible with AeroDyn v13.0.
Interpolated thickness: 0.355

  1        Number of airfoil tables in this file
  9990     Reynolds number in millions.  For efficiency, make very large if only one table.
  0        Control setting
  10.8     Stall angle (deg)
  -3.5306  Zero lift angle of attack (deg)
  5.55059  Cn slope for zero lift (dimensionless)
  1.3883   Cn at stall value for positive angle of attack
  -0.8     Cn at stall value for negative angle of attack
  -2.12    Angle of attack for minimum CD (deg)
  0.0618717 Minimum CD value
  -180.00  0.00002  0.14708  -0.00002
  -170.00  0.33440  0.18196  0.33946
  -160.00  0.66963  0.28202  -0.12155
  -150.00  0.60173  0.43495  -0.05348
  -140.00  0.55845  0.62158  -0.00604
  -130.00  0.49989  0.81873  0.03987
  -120.00  0.40993  1.00137  0.08545
  -110.00  0.29027  1.14632  0.12771
  -100.00  0.14853  1.23484  0.16234
   -90.00  0.00002  1.25470  0.18508
   -80.00  -0.14850  1.23484  0.20189
   -70.00  -0.29023  1.14632  0.20494
   -60.00  -0.40990  1.00137  0.19705
   -50.00  -0.49986  0.81873  0.18330
   -40.00  -0.55842  0.62158  0.17210
   -30.00  -0.60170  0.43495  0.17880
   -20.00  -0.66790  0.28185  0.24398
   -10.00  -0.27326  0.14292  0.10785
    -4.17  -0.06109  0.06204  -0.11425
    -3.17  0.03566  0.06196  -0.11595
    -2.12  0.13580  0.06187  -0.11730
    -1.08  0.23680  0.06187  -0.11883
    -0.05  0.33694  0.06196  -0.11968
    -0.04  0.33718  0.06196  -0.11968
     1.17  0.45548  0.06214  -0.12077
     2.34  0.56691  0.06229  -0.12170
     3.51  0.67869  0.06258  -0.12234
     4.68  0.78696  0.06282  -0.12218
     5.85  0.89177  0.06314  -0.12142
     7.02  0.99115  0.06367  -0.11960
     8.19  1.07275  0.06425  -0.11459
    10.80  1.10984  0.07500  -0.08906
    13.41  0.97137  0.15012  -0.08226
    16.03  0.93799  0.19662  -0.08948
    18.64  0.95940  0.24294  -0.10070
    21.25  0.95407  0.30108  -0.11898
    23.87  0.92558  0.34115  -0.14221
    26.48  0.89709  0.38122  -0.16543
    29.09  0.86859  0.42130  -0.18865
    31.71  0.84837  0.46708  -0.20574
    34.32  0.83241  0.51581  -0.21966
    36.93  0.81645  0.56454  -0.23358
    39.55  0.80050  0.61327  -0.24750
    42.16  0.77958  0.66429  -0.25943
    44.77  0.75764  0.71577  -0.27095
    47.39  0.73570  0.76725  -0.28248
    50.00  0.71376  0.81873  -0.29400
    60.00  0.58561  1.00137  -0.33329
    70.00  0.41417  1.14632  -0.36750
    80.00  0.21219  1.23484  -0.39559
    90.00  0.00002  1.25470  -0.41579
   100.00  -0.14850  1.23484  -0.43250
   110.00  -0.29023  1.14632  -0.43564
   120.00  -0.40990  1.00137  -0.42767
   130.00  -0.49986  0.81873  -0.41400
   140.00  -0.55842  0.62158  -0.40272
   150.00  -0.60170  0.43495  -0.40942
   160.00  -0.66960  0.28202  -0.47528
   170.00  -0.33437  0.18196  -0.42436
   180.00  0.00002  0.14708  -0.00002
EOT
