AeroDyn airfoil file.  Compatible with AeroDyn v13.0.
Interpolated thickness: 0.752

  1        Number of airfoil tables in this file
  9990     Reynolds number in millions.  For efficiency, make very large if only one table.
  0        Control setting
  10.6923  Stall angle (deg)
  -3.13485 Zero lift angle of attack (deg)
  2.39318  Cn slope for zero lift (dimensionless)
  0.577544 Cn at stall value for positive angle of attack
  -0.8     Cn at stall value for negative angle of attack
  -2.12    Angle of attack for minimum CD (deg)
  0.239216 Minimum CD value
  -180.00  0.00007  0.27198  -0.00007
  -170.00  0.12864  0.28539  0.13046
  -160.00  0.25753  0.32386  -0.04680
  -150.00  0.23143  0.38266  -0.02063
  -140.00  0.21478  0.45442  -0.00238
  -130.00  0.19227  0.53022  0.01527
  -120.00  0.15768  0.60045  0.03279
  -110.00  0.11167  0.65618  0.04904
  -100.00  0.05717  0.69022  0.06236
   -90.00  0.00007  0.69785  0.07110
   -80.00  -0.05704  0.69022  0.07756
   -70.00  -0.11153  0.65618  0.07874
   -60.00  -0.15754  0.60045  0.07570
   -50.00  -0.19213  0.53022  0.07042
   -40.00  -0.21465  0.45442  0.06611
   -30.00  -0.23129  0.38266  0.06869
   -20.00  -0.25674  0.32380  0.09375
   -10.00  -0.10501  0.27038  0.04141
    -4.17  -0.02343  0.23928  -0.04399
    -3.17  0.01377  0.23925  -0.04464
    -2.12  0.05228  0.23922  -0.04516
    -1.08  0.09111  0.23922  -0.04575
    -0.05  0.12961  0.23925  -0.04608
    -0.02  0.12970  0.23925  -0.04608
     1.15  0.17519  0.23932  -0.04650
     2.31  0.21803  0.23938  -0.04686
     3.46  0.26101  0.23949  -0.04710
     4.61  0.30264  0.23958  -0.04704
     5.77  0.34295  0.23970  -0.04675
     6.92  0.38116  0.23991  -0.04605
     8.07  0.41253  0.24013  -0.04412
    10.69  0.42679  0.24426  -0.03430
    13.31  0.37355  0.27315  -0.03169
    15.93  0.36071  0.29103  -0.03446
    18.55  0.36895  0.30884  -0.03878
    21.17  0.36690  0.33119  -0.04581
    23.79  0.35594  0.34660  -0.05474
    26.42  0.34499  0.36201  -0.06367
    29.04  0.33403  0.37741  -0.07260
    31.66  0.32625  0.39502  -0.07917
    34.28  0.32012  0.41375  -0.08452
    36.90  0.31398  0.43249  -0.08987
    39.52  0.30785  0.45123  -0.09522
    42.14  0.29981  0.47084  -0.09981
    44.76  0.29137  0.49064  -0.10424
    47.38  0.28293  0.51043  -0.10867
    50.00  0.27450  0.53022  -0.11310
    60.00  0.22523  0.60045  -0.12821
    70.00  0.15931  0.65618  -0.14136
    80.00  0.08165  0.69022  -0.15216
    90.00  0.00007  0.69785  -0.15993
   100.00  -0.05704  0.69022  -0.16636
   110.00  -0.11153  0.65618  -0.16757
   120.00  -0.15754  0.60045  -0.16450
   130.00  -0.19213  0.53022  -0.15924
   140.00  -0.21465  0.45442  -0.15490
   150.00  -0.23129  0.38266  -0.15748
   160.00  -0.25740  0.32386  -0.18280
   170.00  -0.12850  0.28539  -0.16323
   180.00  0.00007  0.27198  -0.00007
EOT
