AeroDyn airfoil file.  Compatible with AeroDyn v13.0.
Interpolated thickness: 0.866

  1        Number of airfoil tables in this file
  9990     Reynolds number in millions.  For efficiency, make very large if only one table.
  0        Control setting
  10.6614  Stall angle (deg)
  -2.84779 Zero lift angle of attack (deg)
  1.441    Cn slope for zero lift (dimensionless)
  0.339758 Cn at stall value for positive angle of attack
  -0.8     Cn at stall value for negative angle of attack
  -2.12    Angle of attack for minimum CD (deg)
  0.290141 Minimum CD value
  -180.00  0.00008  0.30784  -0.00008
  -170.00  0.06955  0.31509  0.07044
  -160.00  0.13920  0.33588  -0.02533
  -150.00  0.12509  0.36765  -0.01119
  -140.00  0.11610  0.40642  -0.00133
  -130.00  0.10393  0.44738  0.00820
  -120.00  0.08524  0.48532  0.01767
  -110.00  0.06038  0.51544  0.02645
  -100.00  0.03094  0.53383  0.03365
   -90.00  0.00008  0.53795  0.03837
   -80.00  -0.03077  0.53383  0.04186
   -70.00  -0.06022  0.51544  0.04250
   -60.00  -0.08508  0.48532  0.04086
   -50.00  -0.10377  0.44738  0.03800
   -40.00  -0.11593  0.40642  0.03567
   -30.00  -0.12493  0.36765  0.03707
   -20.00  -0.13868  0.33584  0.05061
   -10.00  -0.05669  0.30698  0.02233
    -4.17  -0.01261  0.29018  -0.02381
    -3.17  0.00749  0.29016  -0.02417
    -2.12  0.02829  0.29014  -0.02445
    -1.08  0.04927  0.29014  -0.02477
    -0.05  0.07008  0.29016  -0.02494
    -0.01  0.07013  0.29016  -0.02494
     1.15  0.09471  0.29020  -0.02517
     2.30  0.11786  0.29023  -0.02536
     3.45  0.14108  0.29029  -0.02550
     4.59  0.16357  0.29034  -0.02546
     5.74  0.18535  0.29040  -0.02530
     6.89  0.20599  0.29051  -0.02493
     8.04  0.22295  0.29063  -0.02389
    10.66  0.23065  0.29287  -0.01858
    13.28  0.20188  0.30847  -0.01717
    15.91  0.19495  0.31814  -0.01867
    18.53  0.19940  0.32776  -0.02100
    21.15  0.19829  0.33984  -0.02480
    23.77  0.19237  0.34816  -0.02962
    26.40  0.18645  0.35649  -0.03445
    29.02  0.18053  0.36481  -0.03927
    31.64  0.17633  0.37432  -0.04282
    34.26  0.17301  0.38445  -0.04571
    36.89  0.16970  0.39457  -0.04861
    39.51  0.16638  0.40470  -0.05150
    42.13  0.16204  0.41529  -0.05398
    44.75  0.15748  0.42599  -0.05637
    47.38  0.15292  0.43668  -0.05876
    50.00  0.14836  0.44738  -0.06116
    60.00  0.12174  0.48532  -0.06932
    70.00  0.08612  0.51544  -0.07643
    80.00  0.04416  0.53383  -0.08226
    90.00  0.00008  0.53795  -0.08646
   100.00  -0.03077  0.53383  -0.08993
   110.00  -0.06022  0.51544  -0.09059
   120.00  -0.08508  0.48532  -0.08893
   130.00  -0.10377  0.44738  -0.08609
   140.00  -0.11593  0.40642  -0.08374
   150.00  -0.12493  0.36765  -0.08514
   160.00  -0.13903  0.33588  -0.09882
   170.00  -0.06939  0.31509  -0.08824
   180.00  0.00008  0.30784  -0.00008
EOT
