AeroDyn airfoil file.  Compatible with AeroDyn v13.0.
Interpolated thickness: 0.467

  1        Number of airfoil tables in this file
  9990     Reynolds number in millions.  For efficiency, make very large if only one table.
  0        Control setting
  10.7696  Stall angle (deg)
  -3.46054 Zero lift angle of attack (deg)
  4.67364  Cn slope for zero lift (dimensionless)
  1.16076  Cn at stall value for positive angle of attack
  -0.8     Cn at stall value for negative angle of attack
  -2.12    Angle of attack for minimum CD (deg)
  0.111903 Minimum CD value
  -180.00  0.00003  0.18232  -0.00003
  -170.00  0.27635  0.21114  0.28050
  -160.00  0.55337  0.29382  -0.10046
  -150.00  0.49726  0.42020  -0.04421
  -140.00  0.46150  0.57442  -0.00501
  -130.00  0.41310  0.73734  0.03293
  -120.00  0.33877  0.88826  0.07059
  -110.00  0.23988  1.00804  0.10552
  -100.00  0.12276  1.08119  0.13413
   -90.00  0.00003  1.09760  0.15293
   -80.00  -0.12270  1.08119  0.16681
   -70.00  -0.23982  1.00804  0.16934
   -60.00  -0.33871  0.88826  0.16282
   -50.00  -0.41305  0.73734  0.15145
   -40.00  -0.46144  0.57442  0.14220
   -30.00  -0.49720  0.42020  0.14774
   -20.00  -0.55191  0.29368  0.20160
   -10.00  -0.22579  0.17888  0.08911
    -4.17  -0.05046  0.11204  -0.09443
    -3.17  0.02949  0.11197  -0.09583
    -2.12  0.11224  0.11190  -0.09695
    -1.08  0.19570  0.11190  -0.09821
    -0.05  0.27845  0.11197  -0.09892
    -0.03  0.27864  0.11197  -0.09892
     1.16  0.37641  0.11213  -0.09982
     2.33  0.46848  0.11225  -0.10059
     3.49  0.56086  0.11249  -0.10111
     4.66  0.65033  0.11269  -0.10098
     5.82  0.73694  0.11295  -0.10035
     6.99  0.81906  0.11339  -0.09885
     8.15  0.88649  0.11387  -0.09471
    10.77  0.91714  0.12275  -0.07361
    13.39  0.80271  0.18483  -0.06799
    16.00  0.77513  0.22325  -0.07396
    18.62  0.79282  0.26153  -0.08323
    21.23  0.78842  0.30958  -0.09834
    23.85  0.76488  0.34269  -0.11753
    26.46  0.74133  0.37580  -0.13672
    29.08  0.71779  0.40892  -0.15591
    31.69  0.70107  0.44675  -0.17004
    34.31  0.68788  0.48702  -0.18154
    36.92  0.67470  0.52729  -0.19304
    39.54  0.66151  0.56756  -0.20454
    42.15  0.64423  0.60971  -0.21440
    44.77  0.62610  0.65225  -0.22392
    47.38  0.60797  0.69480  -0.23344
    50.00  0.58984  0.73734  -0.24297
    60.00  0.48394  0.88826  -0.27544
    70.00  0.34227  1.00804  -0.30370
    80.00  0.17536  1.08119  -0.32691
    90.00  0.00003  1.09760  -0.34360
   100.00  -0.12270  1.08119  -0.35742
   110.00  -0.23982  1.00804  -0.36002
   120.00  -0.33871  0.88826  -0.35342
   130.00  -0.41305  0.73734  -0.34213
   140.00  -0.46144  0.57442  -0.33280
   150.00  -0.49720  0.42020  -0.33834
   160.00  -0.55331  0.29382  -0.39277
   170.00  -0.27629  0.21114  -0.35069
   180.00  0.00003  0.18232  -0.00003
EOT
