AeroDyn airfoil file.  Compatible with AeroDyn v13.0.
Interpolated thickness: 0.704

  1        Number of airfoil tables in this file
  9990     Reynolds number in millions.  For efficiency, make very large if only one table.
  0        Control setting
  10.7053  Stall angle (deg)
  -3.21986 Zero lift angle of attack (deg)
  2.78226  Cn slope for zero lift (dimensionless)
  0.676202 Cn at stall value for positive angle of attack
  -0.8     Cn at stall value for negative angle of attack
  -2.12    Angle of attack for minimum CD (deg)
  0.217774 Minimum CD value
  -180.00  0.00006  0.25688  -0.00006
  -170.00  0.15351  0.27288  0.15573
  -160.00  0.30736  0.31880  -0.05583
  -150.00  0.27620  0.38899  -0.02460
  -140.00  0.25633  0.47463  -0.00283
  -130.00  0.22946  0.56511  0.01824
  -120.00  0.18818  0.64892  0.03916
  -110.00  0.13326  0.71544  0.05855
  -100.00  0.06822  0.75607  0.07445
   -90.00  0.00006  0.76518  0.08488
   -80.00  -0.06810  0.75607  0.09259
   -70.00  -0.13314  0.71544  0.09400
   -60.00  -0.18805  0.64892  0.09037
   -50.00  -0.22934  0.56511  0.08407
   -40.00  -0.25621  0.47463  0.07892
   -30.00  -0.27608  0.38899  0.08200
   -20.00  -0.30645  0.31873  0.11191
   -10.00  -0.12535  0.25497  0.04944
    -4.17  -0.02798  0.21785  -0.05248
    -3.17  0.01642  0.21781  -0.05326
    -2.12  0.06238  0.21777  -0.05389
    -1.08  0.10872  0.21777  -0.05459
    -0.05  0.15468  0.21781  -0.05498
    -0.02  0.15479  0.21781  -0.05498
     1.16  0.20908  0.21790  -0.05548
     2.31  0.26022  0.21797  -0.05591
     3.47  0.31151  0.21810  -0.05620
     4.62  0.36120  0.21821  -0.05612
     5.78  0.40930  0.21835  -0.05578
     6.93  0.45491  0.21860  -0.05494
     8.09  0.49236  0.21886  -0.05264
    10.71  0.50937  0.22380  -0.04092
    13.32  0.44583  0.25827  -0.03780
    15.94  0.43051  0.27961  -0.04112
    18.56  0.44034  0.30087  -0.04627
    21.18  0.43789  0.32755  -0.05466
    23.80  0.42482  0.34594  -0.06531
    26.42  0.41174  0.36433  -0.07597
    29.04  0.39867  0.38272  -0.08663
    31.66  0.38938  0.40373  -0.09447
    34.28  0.38206  0.42609  -0.10086
    36.90  0.37474  0.44846  -0.10725
    39.52  0.36741  0.47082  -0.11363
    42.14  0.35781  0.49423  -0.11911
    44.76  0.34775  0.51786  -0.12440
    47.38  0.33768  0.54148  -0.12969
    50.00  0.32761  0.56511  -0.13497
    60.00  0.26880  0.64892  -0.15301
    70.00  0.19012  0.71544  -0.16870
    80.00  0.09743  0.75607  -0.18159
    90.00  0.00006  0.76518  -0.19086
   100.00  -0.06810  0.75607  -0.19854
   110.00  -0.13314  0.71544  -0.19998
   120.00  -0.18805  0.64892  -0.19632
   130.00  -0.22934  0.56511  -0.19005
   140.00  -0.25621  0.47463  -0.18487
   150.00  -0.27608  0.38899  -0.18794
   160.00  -0.30723  0.31880  -0.21817
   170.00  -0.15339  0.27288  -0.19480
   180.00  0.00006  0.25688  -0.00006
EOT
