AeroDyn airfoil file.  Compatible with AeroDyn v13.0.
Interpolated thickness: 0.416

  1        Number of airfoil tables in this file
  9990     Reynolds number in millions.  For efficiency, make very large if only one table.
  0        Control setting
  10.7835  Stall angle (deg)
  -3.49432 Zero lift angle of attack (deg)
  5.07429  Cn slope for zero lift (dimensionless)
  1.26449  Cn at stall value for positive angle of attack
  -0.8     Cn at stall value for negative angle of attack
  -2.12    Angle of attack for minimum CD (deg)
  0.0891211 Minimum CD value
  -180.00  0.00002  0.16627  -0.00002
  -170.00  0.30278  0.19785  0.30735
  -160.00  0.60631  0.28845  -0.11006
  -150.00  0.54483  0.42692  -0.04843
  -140.00  0.50564  0.59589  -0.00548
  -130.00  0.45262  0.77440  0.03609
  -120.00  0.37117  0.93976  0.07736
  -110.00  0.26282  1.07101  0.11562
  -100.00  0.13450  1.15116  0.14698
   -90.00  0.00002  1.16914  0.16757
   -80.00  -0.13445  1.15116  0.18278
   -70.00  -0.26278  1.07101  0.18555
   -60.00  -0.37112  0.93976  0.17840
   -50.00  -0.45258  0.77440  0.16596
   -40.00  -0.50560  0.59589  0.15581
   -30.00  -0.54479  0.42692  0.16188
   -20.00  -0.60472  0.28830  0.22090
   -10.00  -0.24741  0.16251  0.09764
    -4.17  -0.05530  0.08927  -0.10345
    -3.17  0.03230  0.08920  -0.10499
    -2.12  0.12297  0.08912  -0.10622
    -1.08  0.21441  0.08912  -0.10760
    -0.05  0.30509  0.08920  -0.10837
    -0.04  0.30530  0.08920  -0.10837
     1.17  0.41241  0.08937  -0.10936
     2.33  0.51330  0.08950  -0.11020
     3.50  0.61451  0.08976  -0.11078
     4.67  0.71254  0.08998  -0.11063
     5.84  0.80745  0.09027  -0.10995
     7.00  0.89742  0.09075  -0.10830
     8.17  0.97131  0.09127  -0.10376
    10.78  1.00488  0.10101  -0.08064
    13.40  0.87951  0.16902  -0.07449
    16.01  0.84929  0.21113  -0.08102
    18.63  0.86867  0.25306  -0.09119
    21.24  0.86385  0.30571  -0.10774
    23.86  0.83805  0.34199  -0.12877
    26.47  0.81226  0.37827  -0.14979
    29.08  0.78646  0.41455  -0.17082
    31.70  0.76814  0.45600  -0.18630
    34.31  0.75370  0.50013  -0.19890
    36.93  0.73925  0.54425  -0.21150
    39.54  0.72480  0.58838  -0.22410
    42.16  0.70586  0.63456  -0.23490
    44.77  0.68599  0.68118  -0.24534
    47.39  0.66613  0.72779  -0.25577
    50.00  0.64627  0.77440  -0.26620
    60.00  0.53023  0.93976  -0.30178
    70.00  0.37501  1.07101  -0.33275
    80.00  0.19213  1.15116  -0.35818
    90.00  0.00002  1.16914  -0.37647
   100.00  -0.13445  1.15116  -0.39161
   110.00  -0.26278  1.07101  -0.39445
   120.00  -0.37112  0.93976  -0.38723
   130.00  -0.45258  0.77440  -0.37486
   140.00  -0.50560  0.59589  -0.36464
   150.00  -0.54479  0.42692  -0.37071
   160.00  -0.60626  0.28845  -0.43034
   170.00  -0.30273  0.19785  -0.38423
   180.00  0.00002  0.16627  -0.00002
EOT
