AeroDyn airfoil file.  Compatible with AeroDyn v13.0.
Interpolated thickness: 0.812

  1        Number of airfoil tables in this file
  9990     Reynolds number in millions.  For efficiency, make very large if only one table.
  0        Control setting
  10.676   Stall angle (deg)
  -3.06504 Zero lift angle of attack (deg)
  1.87761  Cn slope for zero lift (dimensionless)
  0.450302 Cn at stall value for positive angle of attack
  -0.8     Cn at stall value for negative angle of attack
  -2.12    Angle of attack for minimum CD (deg)
  0.266018 Minimum CD value
  -180.00  0.00008  0.29085  -0.00008
  -170.00  0.09754  0.30102  0.09887
  -160.00  0.19525  0.33019  -0.03550
  -150.00  0.17546  0.37476  -0.01566
  -140.00  0.16284  0.42916  -0.00183
  -130.00  0.14578  0.48662  0.01155
  -120.00  0.11955  0.53986  0.02483
  -110.00  0.08468  0.58211  0.03715
  -100.00  0.04336  0.60791  0.04725
   -90.00  0.00008  0.61369  0.05388
   -80.00  -0.04321  0.60791  0.05877
   -70.00  -0.08452  0.58211  0.05966
   -60.00  -0.11940  0.53986  0.05736
   -50.00  -0.14562  0.48662  0.05336
   -40.00  -0.16269  0.42916  0.05009
   -30.00  -0.17531  0.37476  0.05205
   -20.00  -0.19460  0.33014  0.07104
   -10.00  -0.07958  0.28964  0.03137
    -4.17  -0.01774  0.26607  -0.03337
    -3.17  0.01046  0.26604  -0.03387
    -2.12  0.03965  0.26602  -0.03426
    -1.08  0.06909  0.26602  -0.03471
    -0.05  0.09828  0.26604  -0.03495
    -0.01  0.09835  0.26604  -0.03495
     1.15  0.13283  0.26610  -0.03527
     2.30  0.16531  0.26614  -0.03554
     3.45  0.19789  0.26622  -0.03573
     4.60  0.22945  0.26629  -0.03568
     5.75  0.26000  0.26639  -0.03546
     6.90  0.28896  0.26654  -0.03493
     8.05  0.31275  0.26671  -0.03347
    10.68  0.32356  0.26984  -0.02603
    13.30  0.28320  0.29174  -0.02405
    15.92  0.27347  0.30529  -0.02615
    18.54  0.27971  0.31879  -0.02942
    21.16  0.27816  0.33574  -0.03475
    23.78  0.26985  0.34742  -0.04152
    26.41  0.26155  0.35910  -0.04829
    29.03  0.25324  0.37078  -0.05506
    31.65  0.24735  0.38412  -0.06004
    34.27  0.24270  0.39833  -0.06410
    36.89  0.23804  0.41253  -0.06815
    39.51  0.23339  0.42674  -0.07221
    42.14  0.22730  0.44161  -0.07569
    44.76  0.22090  0.45661  -0.07905
    47.38  0.21451  0.47162  -0.08240
    50.00  0.20811  0.48662  -0.08576
    60.00  0.17076  0.53986  -0.09722
    70.00  0.12079  0.58211  -0.10719
    80.00  0.06192  0.60791  -0.11537
    90.00  0.00008  0.61369  -0.12126
   100.00  -0.04321  0.60791  -0.12613
   110.00  -0.08452  0.58211  -0.12705
   120.00  -0.11940  0.53986  -0.12472
   130.00  -0.14562  0.48662  -0.12074
   140.00  -0.16269  0.42916  -0.11745
   150.00  -0.17531  0.37476  -0.11941
   160.00  -0.19510  0.33019  -0.13860
   170.00  -0.09739  0.30102  -0.12376
   180.00  0.00008  0.29085  -0.00008
EOT
