AeroDyn airfoil file.  Compatible with AeroDyn v13.0.
Interpolated thickness: 0.85

  1        Number of airfoil tables in this file
  9990     Reynolds number in millions.  For efficiency, make very large if only one table.
  0        Control setting
  10.6657  Stall angle (deg)
  -2.9244  Zero lift angle of attack (deg)
  1.57056  Cn slope for zero lift (dimensionless)
  0.372523 Cn at stall value for positive angle of attack
  -0.8     Cn at stall value for negative angle of attack
  -2.12    Angle of attack for minimum CD (deg)
  0.282993 Minimum CD value
  -180.00  0.00008  0.30281  -0.00008
  -170.00  0.07784  0.31092  0.07887
  -160.00  0.15580  0.33419  -0.02834
  -150.00  0.14001  0.36976  -0.01251
  -140.00  0.12995  0.41316  -0.00148
  -130.00  0.11633  0.45901  0.00920
  -120.00  0.09541  0.50148  0.01979
  -110.00  0.06758  0.53519  0.02962
  -100.00  0.03462  0.55578  0.03768
   -90.00  0.00008  0.56039  0.04297
   -80.00  -0.03446  0.55578  0.04687
   -70.00  -0.06742  0.53519  0.04758
   -60.00  -0.09525  0.50148  0.04575
   -50.00  -0.11617  0.45901  0.04255
   -40.00  -0.12979  0.41316  0.03995
   -30.00  -0.13985  0.36976  0.04151
   -20.00  -0.15525  0.33415  0.05666
   -10.00  -0.06347  0.30184  0.02501
    -4.17  -0.01413  0.28303  -0.02665
    -3.17  0.00837  0.28301  -0.02704
    -2.12  0.03166  0.28299  -0.02736
    -1.08  0.05515  0.28299  -0.02771
    -0.05  0.07844  0.28301  -0.02791
    -0.01  0.07849  0.28301  -0.02791
     1.15  0.10600  0.28306  -0.02816
     2.30  0.13192  0.28309  -0.02838
     3.45  0.15791  0.28316  -0.02853
     4.60  0.18309  0.28321  -0.02849
     5.75  0.20747  0.28329  -0.02831
     6.89  0.23058  0.28341  -0.02789
     8.04  0.24955  0.28355  -0.02673
    10.67  0.25818  0.28605  -0.02079
    13.29  0.22598  0.30352  -0.01921
    15.91  0.21821  0.31433  -0.02089
    18.53  0.22319  0.32510  -0.02350
    21.15  0.22195  0.33862  -0.02775
    23.78  0.21533  0.34794  -0.03315
    26.40  0.20870  0.35726  -0.03855
    29.02  0.20208  0.36658  -0.04395
    31.64  0.19737  0.37723  -0.04792
    34.27  0.19366  0.38856  -0.05116
    36.89  0.18995  0.39989  -0.05440
    39.51  0.18624  0.41123  -0.05763
    42.13  0.18137  0.42309  -0.06041
    44.76  0.17627  0.43506  -0.06309
    47.38  0.17117  0.44703  -0.06577
    50.00  0.16607  0.45901  -0.06845
    60.00  0.13626  0.50148  -0.07759
    70.00  0.09640  0.53519  -0.08554
    80.00  0.04942  0.55578  -0.09207
    90.00  0.00008  0.56039  -0.09677
   100.00  -0.03446  0.55578  -0.10066
   110.00  -0.06742  0.53519  -0.10139
   120.00  -0.09525  0.50148  -0.09953
   130.00  -0.11617  0.45901  -0.09636
   140.00  -0.12979  0.41316  -0.09373
   150.00  -0.13985  0.36976  -0.09529
   160.00  -0.15564  0.33419  -0.11061
   170.00  -0.07768  0.31092  -0.09876
   180.00  0.00008  0.30281  -0.00008
EOT
