AeroDyn airfoil file.  Compatible with AeroDyn v13.0.
Interpolated thickness: 0.452

  1        Number of airfoil tables in this file
  9990     Reynolds number in millions.  For efficiency, make very large if only one table.
  0        Control setting
  10.7737  Stall angle (deg)
  -3.47086 Zero lift angle of attack (deg)
  4.79171  Cn slope for zero lift (dimensionless)
  1.19129  Cn at stall value for positive angle of attack
  -0.8     Cn at stall value for negative angle of attack
  -2.12    Angle of attack for minimum CD (deg)
  0.105203 Minimum CD value
  -180.00  0.00003  0.17760  -0.00003
  -170.00  0.28412  0.20723  0.28839
  -160.00  0.56894  0.29224  -0.10328
  -150.00  0.51125  0.42218  -0.04545
  -140.00  0.47448  0.58074  -0.00515
  -130.00  0.42473  0.74824  0.03386
  -120.00  0.34830  0.90341  0.07258
  -110.00  0.24663  1.02656  0.10849
  -100.00  0.12621  1.10177  0.13791
   -90.00  0.00003  1.11864  0.15723
   -80.00  -0.12616  1.10177  0.17151
   -70.00  -0.24657  1.02656  0.17411
   -60.00  -0.34824  0.90341  0.16740
   -50.00  -0.42467  0.74824  0.15572
   -40.00  -0.47442  0.58074  0.14620
   -30.00  -0.51120  0.42218  0.15190
   -20.00  -0.56744  0.29210  0.20727
   -10.00  -0.23215  0.17406  0.09162
    -4.17  -0.05189  0.10535  -0.09708
    -3.17  0.03031  0.10527  -0.09852
    -2.12  0.11540  0.10520  -0.09968
    -1.08  0.20120  0.10520  -0.10098
    -0.05  0.28629  0.10527  -0.10170
    -0.03  0.28648  0.10528  -0.10170
     1.17  0.38700  0.10543  -0.10262
     2.33  0.48167  0.10556  -0.10342
     3.50  0.57664  0.10580  -0.10396
     4.66  0.66862  0.10601  -0.10382
     5.83  0.75768  0.10628  -0.10317
     6.99  0.84211  0.10673  -0.10163
     8.16  0.91144  0.10722  -0.09737
    10.77  0.94295  0.11636  -0.07568
    13.39  0.82530  0.18018  -0.06990
    16.00  0.79694  0.21969  -0.07603
    18.62  0.81513  0.25904  -0.08557
    21.23  0.81061  0.30844  -0.10110
    23.85  0.78640  0.34248  -0.12084
    26.46  0.76219  0.37653  -0.14057
    29.08  0.73798  0.41057  -0.16030
    31.69  0.72080  0.44947  -0.17482
    34.31  0.70724  0.49087  -0.18664
    36.92  0.69368  0.53228  -0.19847
    39.54  0.68013  0.57368  -0.21029
    42.15  0.66235  0.61702  -0.22043
    44.77  0.64371  0.66076  -0.23022
    47.38  0.62507  0.70450  -0.24001
    50.00  0.60643  0.74824  -0.24980
    60.00  0.49755  0.90341  -0.28319
    70.00  0.35190  1.02656  -0.31224
    80.00  0.18029  1.10177  -0.33611
    90.00  0.00003  1.11864  -0.35327
   100.00  -0.12616  1.10177  -0.36748
   110.00  -0.24657  1.02656  -0.37014
   120.00  -0.34824  0.90341  -0.36337
   130.00  -0.42467  0.74824  -0.35176
   140.00  -0.47442  0.58074  -0.34217
   150.00  -0.51120  0.42218  -0.34786
   160.00  -0.56888  0.29224  -0.40382
   170.00  -0.28407  0.20723  -0.36055
   180.00  0.00003  0.17760  -0.00003
EOT
