AeroDyn airfoil file.  Compatible with AeroDyn v13.0.
Interpolated thickness: 0.349

  1        Number of airfoil tables in this file
  9990     Reynolds number in millions.  For efficiency, make very large if only one table.
  0        Control setting
  10.8017  Stall angle (deg)
  -3.53397 Zero lift angle of attack (deg)
  5.59727  Cn slope for zero lift (dimensionless)
  1.40046  Cn at stall value for positive angle of attack
  -0.8     Cn at stall value for negative angle of attack
  -2.12    Angle of attack for minimum CD (deg)
  0.0591914 Minimum CD value
  -180.00  0.00001  0.14519  -0.00001
  -170.00  0.33751  0.18040  0.34262
  -160.00  0.67586  0.28139  -0.12268
  -150.00  0.60733  0.43574  -0.05398
  -140.00  0.56364  0.62411  -0.00610
  -130.00  0.50454  0.82309  0.04024
  -120.00  0.41374  1.00742  0.08624
  -110.00  0.29296  1.15373  0.12890
  -100.00  0.14992  1.24307  0.16385
   -90.00  0.00001  1.26311  0.18681
   -80.00  -0.14989  1.24307  0.20377
   -70.00  -0.29294  1.15373  0.20685
   -60.00  -0.41371  1.00742  0.19888
   -50.00  -0.50451  0.82309  0.18501
   -40.00  -0.56361  0.62411  0.17370
   -30.00  -0.60730  0.43574  0.18047
   -20.00  -0.67411  0.28122  0.24625
   -10.00  -0.27580  0.14099  0.10886
    -4.17  -0.06166  0.05936  -0.11531
    -3.17  0.03599  0.05928  -0.11702
    -2.12  0.13707  0.05919  -0.11839
    -1.08  0.23900  0.05919  -0.11994
    -0.05  0.34008  0.05928  -0.12079
    -0.04  0.34031  0.05928  -0.12079
     1.17  0.45971  0.05946  -0.12189
     2.34  0.57218  0.05962  -0.12283
     3.51  0.68500  0.05991  -0.12348
     4.68  0.79428  0.06015  -0.12332
     5.85  0.90007  0.06047  -0.12255
     7.02  1.00037  0.06100  -0.12071
     8.19  1.08273  0.06159  -0.11565
    10.80  1.12016  0.07244  -0.08988
    13.41  0.98040  0.14826  -0.08302
    16.03  0.94671  0.19519  -0.09031
    18.64  0.96832  0.24194  -0.10164
    21.25  0.96295  0.30063  -0.12009
    23.87  0.93419  0.34107  -0.14353
    26.48  0.90543  0.38151  -0.16697
    29.09  0.87667  0.42196  -0.19041
    31.71  0.85626  0.46817  -0.20766
    34.32  0.84015  0.51735  -0.22170
    36.93  0.82405  0.56654  -0.23575
    39.55  0.80794  0.61572  -0.24980
    42.16  0.78683  0.66721  -0.26184
    44.77  0.76468  0.71917  -0.27347
    47.39  0.74254  0.77113  -0.28510
    50.00  0.72040  0.82309  -0.29673
    60.00  0.59105  1.00742  -0.33639
    70.00  0.41802  1.15373  -0.37091
    80.00  0.21416  1.24307  -0.39927
    90.00  0.00001  1.26311  -0.41965
   100.00  -0.14989  1.24307  -0.43653
   110.00  -0.29294  1.15373  -0.43970
   120.00  -0.41371  1.00742  -0.43164
   130.00  -0.50451  0.82309  -0.41785
   140.00  -0.56361  0.62411  -0.40646
   150.00  -0.60730  0.43574  -0.41323
   160.00  -0.67583  0.28139  -0.47970
   170.00  -0.33748  0.18040  -0.42830
   180.00  0.00001  0.14519  -0.00001
EOT
