AeroDyn airfoil file.  Compatible with AeroDyn v13.0.
Interpolated thickness: 0.831

  1        Number of airfoil tables in this file
  9990     Reynolds number in millions.  For efficiency, make very large if only one table.
  0        Control setting
  10.6709  Stall angle (deg)
  -3.00079 Zero lift angle of attack (deg)
  1.7242   Cn slope for zero lift (dimensionless)
  0.41142  Cn at stall value for positive angle of attack
  -0.8     Cn at stall value for negative angle of attack
  -2.12    Angle of attack for minimum CD (deg)
  0.274506 Minimum CD value
  -180.00  0.00008  0.29683  -0.00008
  -170.00  0.08769  0.30597  0.08887
  -160.00  0.17553  0.33219  -0.03192
  -150.00  0.15774  0.37226  -0.01409
  -140.00  0.14640  0.42116  -0.00166
  -130.00  0.13105  0.47281  0.01037
  -120.00  0.10748  0.52067  0.02231
  -110.00  0.07613  0.55865  0.03339
  -100.00  0.03899  0.58184  0.04246
   -90.00  0.00008  0.58704  0.04842
   -80.00  -0.03884  0.58184  0.05282
   -70.00  -0.07597  0.55865  0.05362
   -60.00  -0.10733  0.52067  0.05156
   -50.00  -0.13090  0.47281  0.04795
   -40.00  -0.14624  0.42116  0.04502
   -30.00  -0.15758  0.37226  0.04678
   -20.00  -0.17493  0.33214  0.06385
   -10.00  -0.07152  0.29574  0.02819
    -4.17  -0.01593  0.27455  -0.03001
    -3.17  0.00942  0.27453  -0.03045
    -2.12  0.03566  0.27451  -0.03081
    -1.08  0.06212  0.27451  -0.03121
    -0.05  0.08836  0.27453  -0.03143
    -0.01  0.08842  0.27453  -0.03143
     1.15  0.11942  0.27458  -0.03172
     2.30  0.14861  0.27462  -0.03196
     3.45  0.17790  0.27469  -0.03213
     4.60  0.20627  0.27475  -0.03209
     5.75  0.23373  0.27484  -0.03189
     6.90  0.25977  0.27498  -0.03141
     8.05  0.28115  0.27513  -0.03010
    10.67  0.29087  0.27795  -0.02341
    13.29  0.25459  0.29763  -0.02163
    15.91  0.24584  0.30981  -0.02352
    18.54  0.25145  0.32195  -0.02646
    21.16  0.25006  0.33718  -0.03125
    23.78  0.24259  0.34768  -0.03733
    26.40  0.23512  0.35818  -0.04342
    29.02  0.22766  0.36868  -0.04950
    31.65  0.22236  0.38068  -0.05398
    34.27  0.21818  0.39344  -0.05763
    36.89  0.21400  0.40621  -0.06128
    39.51  0.20982  0.41898  -0.06492
    42.13  0.20434  0.43235  -0.06805
    44.76  0.19859  0.44584  -0.07107
    47.38  0.19284  0.45933  -0.07409
    50.00  0.18709  0.47281  -0.07711
    60.00  0.15351  0.52067  -0.08740
    70.00  0.10859  0.55865  -0.09636
    80.00  0.05567  0.58184  -0.10372
    90.00  0.00008  0.58704  -0.10902
   100.00  -0.03884  0.58184  -0.11340
   110.00  -0.07597  0.55865  -0.11422
   120.00  -0.10733  0.52067  -0.11213
   130.00  -0.13090  0.47281  -0.10855
   140.00  -0.14624  0.42116  -0.10559
   150.00  -0.15758  0.37226  -0.10735
   160.00  -0.17537  0.33219  -0.12460
   170.00  -0.08754  0.30597  -0.11126
   180.00  0.00008  0.29683  -0.00008
EOT
