AeroDyn airfoil file.  Compatible with AeroDyn v13.0.
Interpolated thickness: 0.678

  1        Number of airfoil tables in this file
  9990     Reynolds number in millions.  For efficiency, make very large if only one table.
  0        Control setting
  10.7124  Stall angle (deg)
  -3.25785 Zero lift angle of attack (deg)
  2.99216  Cn slope for zero lift (dimensionless)
  0.729568 Cn at stall value for positive angle of attack
  -0.8     Cn at stall value for negative angle of attack
  -2.12    Angle of attack for minimum CD (deg)
  0.206159 Minimum CD value
  -180.00  0.00006  0.24870  -0.00006
  -170.00  0.16699  0.26611  0.16942
  -160.00  0.33434  0.31606  -0.06073
  -150.00  0.30045  0.39241  -0.02675
  -140.00  0.27884  0.48558  -0.00307
  -130.00  0.24961  0.58400  0.01986
  -120.00  0.20470  0.67518  0.04261
  -110.00  0.14496  0.74754  0.06371
  -100.00  0.07420  0.79173  0.08099
   -90.00  0.00006  0.80165  0.09235
   -80.00  -0.07409  0.79173  0.10074
   -70.00  -0.14484  0.74754  0.10226
   -60.00  -0.20458  0.67518  0.09832
   -50.00  -0.24949  0.58400  0.09146
   -40.00  -0.27873  0.48558  0.08587
   -30.00  -0.30033  0.39241  0.08921
   -20.00  -0.33338  0.31598  0.12175
   -10.00  -0.13637  0.24662  0.05379
    -4.17  -0.03045  0.20624  -0.05709
    -3.17  0.01785  0.20620  -0.05793
    -2.12  0.06785  0.20616  -0.05861
    -1.08  0.11827  0.20616  -0.05937
    -0.05  0.16826  0.20620  -0.05980
    -0.02  0.16838  0.20620  -0.05980
     1.16  0.22744  0.20629  -0.06034
     2.31  0.28306  0.20637  -0.06081
     3.47  0.33887  0.20651  -0.06113
     4.62  0.39292  0.20663  -0.06105
     5.78  0.44525  0.20679  -0.06067
     6.94  0.49486  0.20706  -0.05976
     8.09  0.53559  0.20735  -0.05726
    10.71  0.55411  0.21271  -0.04451
    13.33  0.48498  0.25021  -0.04111
    15.95  0.46832  0.27343  -0.04472
    18.57  0.47900  0.29655  -0.05032
    21.19  0.47635  0.32558  -0.05945
    23.81  0.46212  0.34558  -0.07104
    26.43  0.44790  0.36559  -0.08264
    29.05  0.43367  0.38559  -0.09423
    31.67  0.42358  0.40845  -0.10276
    34.28  0.41561  0.43278  -0.10971
    36.90  0.40764  0.45710  -0.11666
    39.52  0.39968  0.48143  -0.12361
    42.14  0.38923  0.50690  -0.12956
    44.76  0.37828  0.53260  -0.13532
    47.38  0.36733  0.55830  -0.14107
    50.00  0.35638  0.58400  -0.14682
    60.00  0.29240  0.67518  -0.16644
    70.00  0.20682  0.74754  -0.18351
    80.00  0.10598  0.79173  -0.19754
    90.00  0.00006  0.80165  -0.20762
   100.00  -0.07409  0.79173  -0.21597
   110.00  -0.14484  0.74754  -0.21753
   120.00  -0.20458  0.67518  -0.21355
   130.00  -0.24949  0.58400  -0.20673
   140.00  -0.27873  0.48558  -0.20110
   150.00  -0.30033  0.39241  -0.20444
   160.00  -0.33423  0.31606  -0.23732
   170.00  -0.16687  0.26611  -0.21190
   180.00  0.00006  0.24870  -0.00006
EOT
