AeroDyn airfoil file.  Compatible with AeroDyn v13.0.
Interpolated thickness: 0.639

  1        Number of airfoil tables in this file
  9990     Reynolds number in millions.  For efficiency, make very large if only one table.
  0        Control setting
  10.723   Stall angle (deg)
  -3.30719 Zero lift angle of attack (deg)
  3.30588  Cn slope for zero lift (dimensionless)
  0.80952  Cn at stall value for positive angle of attack
  -0.8     Cn at stall value for negative angle of attack
  -2.12    Angle of attack for minimum CD (deg)
  0.188738 Minimum CD value
  -180.00  0.00005  0.23643  -0.00005
  -170.00  0.18720  0.25595  0.18995
  -160.00  0.37483  0.31195  -0.06807
  -150.00  0.33683  0.39755  -0.02998
  -140.00  0.31260  0.50200  -0.00343
  -130.00  0.27983  0.61234  0.02227
  -120.00  0.22948  0.71456  0.04778
  -110.00  0.16250  0.79569  0.07143
  -100.00  0.08318  0.84523  0.09081
   -90.00  0.00005  0.85635  0.10355
   -80.00  -0.08307  0.84523  0.11295
   -70.00  -0.16240  0.79569  0.11466
   -60.00  -0.22937  0.71456  0.11024
   -50.00  -0.27972  0.61234  0.10255
   -40.00  -0.31250  0.50200  0.09628
   -30.00  -0.33672  0.39755  0.10003
   -20.00  -0.37377  0.31186  0.13651
   -10.00  -0.15290  0.23410  0.06032
    -4.17  -0.03415  0.18883  -0.06399
    -3.17  0.02000  0.18879  -0.06494
    -2.12  0.07605  0.18874  -0.06570
    -1.08  0.13258  0.18874  -0.06655
    -0.05  0.18863  0.18879  -0.06703
    -0.02  0.18876  0.18879  -0.06703
     1.16  0.25497  0.18889  -0.06764
     2.32  0.31734  0.18897  -0.06816
     3.47  0.37990  0.18913  -0.06852
     4.63  0.44050  0.18927  -0.06843
     5.79  0.49916  0.18944  -0.06800
     6.95  0.55478  0.18974  -0.06698
     8.10  0.60045  0.19007  -0.06418
    10.72  0.62121  0.19608  -0.04989
    13.34  0.54371  0.23813  -0.04608
    15.96  0.52503  0.26416  -0.05012
    18.58  0.53701  0.29008  -0.05640
    21.20  0.53403  0.32262  -0.06664
    23.82  0.51808  0.34505  -0.07964
    26.43  0.50214  0.36748  -0.09263
    29.05  0.48619  0.38990  -0.10563
    31.67  0.47487  0.41553  -0.11520
    34.29  0.46594  0.44280  -0.12299
    36.91  0.45700  0.47008  -0.13078
    39.53  0.44807  0.49735  -0.13857
    42.14  0.43637  0.52590  -0.14524
    44.76  0.42409  0.55472  -0.15169
    47.38  0.41181  0.58353  -0.15814
    50.00  0.39953  0.61234  -0.16459
    60.00  0.32780  0.71456  -0.18659
    70.00  0.23185  0.79569  -0.20573
    80.00  0.11880  0.84523  -0.22145
    90.00  0.00005  0.85635  -0.23275
   100.00  -0.08307  0.84523  -0.24211
   110.00  -0.16240  0.79569  -0.24387
   120.00  -0.22937  0.71456  -0.23941
   130.00  -0.27972  0.61234  -0.23176
   140.00  -0.31250  0.50200  -0.22544
   150.00  -0.33672  0.39755  -0.22919
   160.00  -0.37472  0.31195  -0.26605
   170.00  -0.18710  0.25595  -0.23755
   180.00  0.00005  0.23643  -0.00005
EOT
