AeroDyn airfoil file.  Compatible with AeroDyn v13.0.
Interpolated thickness: 0.715

  1        Number of airfoil tables in this file
  9990     Reynolds number in millions.  For efficiency, make very large if only one table.
  0        Control setting
  10.7023  Stall angle (deg)
  -3.20228 Zero lift angle of attack (deg)
  2.69328  Cn slope for zero lift (dimensionless)
  0.653608 Cn at stall value for positive angle of attack
  -0.8     Cn at stall value for negative angle of attack
  -2.12    Angle of attack for minimum CD (deg)
  0.222688 Minimum CD value
  -180.00  0.00006  0.26034  -0.00006
  -170.00  0.14781  0.27575  0.14994
  -160.00  0.29594  0.31996  -0.05376
  -150.00  0.26594  0.38754  -0.02369
  -140.00  0.24681  0.47000  -0.00273
  -130.00  0.22094  0.55711  0.01756
  -120.00  0.18119  0.63781  0.03770
  -110.00  0.12831  0.70186  0.05638
  -100.00  0.06569  0.74098  0.07168
   -90.00  0.00006  0.74975  0.08173
   -80.00  -0.06556  0.74098  0.08915
   -70.00  -0.12819  0.70186  0.09050
   -60.00  -0.18106  0.63781  0.08701
   -50.00  -0.22081  0.55711  0.08094
   -40.00  -0.24669  0.47000  0.07599
   -30.00  -0.26581  0.38754  0.07895
   -20.00  -0.29506  0.31989  0.10775
   -10.00  -0.12069  0.25850  0.04760
    -4.17  -0.02694  0.22276  -0.05054
    -3.17  0.01581  0.22273  -0.05129
    -2.12  0.06006  0.22269  -0.05189
    -1.08  0.10469  0.22269  -0.05256
    -0.05  0.14894  0.22273  -0.05294
    -0.02  0.14904  0.22273  -0.05294
     1.15  0.20131  0.22281  -0.05342
     2.31  0.25055  0.22287  -0.05383
     3.46  0.29994  0.22300  -0.05411
     4.62  0.34778  0.22311  -0.05404
     5.77  0.39410  0.22325  -0.05371
     6.93  0.43801  0.22348  -0.05290
     8.08  0.47406  0.22374  -0.05069
    10.70  0.49045  0.22849  -0.03941
    13.32  0.42926  0.26168  -0.03640
    15.94  0.41452  0.28223  -0.03959
    18.56  0.42398  0.30269  -0.04455
    21.18  0.42162  0.32839  -0.05263
    23.80  0.40903  0.34609  -0.06289
    26.42  0.39644  0.36380  -0.07315
    29.04  0.38385  0.38150  -0.08341
    31.66  0.37492  0.40173  -0.09097
    34.28  0.36786  0.42326  -0.09712
    36.90  0.36081  0.44480  -0.10327
    39.52  0.35376  0.46633  -0.10941
    42.14  0.34452  0.48887  -0.11469
    44.76  0.33483  0.51162  -0.11978
    47.38  0.32513  0.53437  -0.12487
    50.00  0.31544  0.55711  -0.12996
    60.00  0.25881  0.63781  -0.14732
    70.00  0.18306  0.70186  -0.16244
    80.00  0.09381  0.74098  -0.17485
    90.00  0.00006  0.74975  -0.18377
   100.00  -0.06556  0.74098  -0.19116
   110.00  -0.12819  0.70186  -0.19255
   120.00  -0.18106  0.63781  -0.18903
   130.00  -0.22081  0.55711  -0.18299
   140.00  -0.24669  0.47000  -0.17800
   150.00  -0.26581  0.38754  -0.18096
   160.00  -0.29581  0.31996  -0.21006
   170.00  -0.14769  0.27575  -0.18756
   180.00  0.00006  0.26034  -0.00006
EOT
