AeroDyn airfoil file.  Compatible with AeroDyn v13.0.
Interpolated thickness: 0.63

  1        Number of airfoil tables in this file
  9990     Reynolds number in millions.  For efficiency, make very large if only one table.
  0        Control setting
  10.7254  Stall angle (deg)
  -3.31751 Zero lift angle of attack (deg)
  3.37809  Cn slope for zero lift (dimensionless)
  0.827954 Cn at stall value for positive angle of attack
  -0.8     Cn at stall value for negative angle of attack
  -2.12    Angle of attack for minimum CD (deg)
  0.184717 Minimum CD value
  -180.00  0.00005  0.23360  -0.00005
  -170.00  0.19187  0.25361  0.19469
  -160.00  0.38417  0.31100  -0.06977
  -150.00  0.34522  0.39873  -0.03072
  -140.00  0.32039  0.50579  -0.00351
  -130.00  0.28680  0.61888  0.02283
  -120.00  0.23520  0.72365  0.04897
  -110.00  0.16655  0.80680  0.07322
  -100.00  0.08525  0.85758  0.09308
   -90.00  0.00005  0.86897  0.10613
   -80.00  -0.08515  0.85758  0.11577
   -70.00  -0.16645  0.80680  0.11752
   -60.00  -0.23509  0.72365  0.11299
   -50.00  -0.28670  0.61888  0.10511
   -40.00  -0.32029  0.50579  0.09868
   -30.00  -0.34512  0.39873  0.10253
   -20.00  -0.38309  0.31091  0.13992
   -10.00  -0.15671  0.23121  0.06183
    -4.17  -0.03500  0.18481  -0.06558
    -3.17  0.02050  0.18477  -0.06655
    -2.12  0.07795  0.18472  -0.06733
    -1.08  0.13588  0.18472  -0.06821
    -0.05  0.19333  0.18477  -0.06870
    -0.02  0.19346  0.18477  -0.06870
     1.16  0.26133  0.18487  -0.06932
     2.32  0.32524  0.18496  -0.06986
     3.47  0.38937  0.18512  -0.07022
     4.63  0.45148  0.18526  -0.07013
     5.79  0.51160  0.18544  -0.06969
     6.95  0.56861  0.18575  -0.06865
     8.11  0.61542  0.18608  -0.06578
    10.73  0.63669  0.19225  -0.05113
    13.34  0.55726  0.23534  -0.04723
    15.96  0.53811  0.26202  -0.05137
    18.58  0.55039  0.28859  -0.05781
    21.20  0.54734  0.32194  -0.06830
    23.82  0.53100  0.34493  -0.08162
    26.44  0.51465  0.36791  -0.09494
    29.05  0.49831  0.39090  -0.10826
    31.67  0.48670  0.41716  -0.11807
    34.29  0.47755  0.44512  -0.12605
    36.91  0.46840  0.47307  -0.13403
    39.53  0.45924  0.50103  -0.14202
    42.15  0.44724  0.53029  -0.14886
    44.76  0.43466  0.55982  -0.15547
    47.38  0.42207  0.58935  -0.16208
    50.00  0.40949  0.61888  -0.16869
    60.00  0.33597  0.72365  -0.19123
    70.00  0.23763  0.80680  -0.21085
    80.00  0.12176  0.85758  -0.22697
    90.00  0.00005  0.86897  -0.23856
   100.00  -0.08515  0.85758  -0.24815
   110.00  -0.16645  0.80680  -0.24995
   120.00  -0.23509  0.72365  -0.24537
   130.00  -0.28670  0.61888  -0.23753
   140.00  -0.32029  0.50579  -0.23106
   150.00  -0.34512  0.39873  -0.23490
   160.00  -0.38407  0.31100  -0.27268
   170.00  -0.19176  0.25361  -0.24347
   180.00  0.00005  0.23360  -0.00005
EOT
