AeroDyn airfoil file.  Compatible with AeroDyn v13.0.
Interpolated thickness: 0.294

  1        Number of airfoil tables in this file
  9990     Reynolds number in millions.  For efficiency, make very large if only one table.
  0        Control setting
  10.8166  Stall angle (deg)
  -3.56344 Zero lift angle of attack (deg)
  6.02375  Cn slope for zero lift (dimensionless)
  1.51184  Cn at stall value for positive angle of attack
  -0.8     Cn at stall value for negative angle of attack
  -2.12    Angle of attack for minimum CD (deg)
  0.0346224 Minimum CD value
  -180.00  0.00001  0.12789  -0.00001
  -170.00  0.36601  0.16607  0.37157
  -160.00  0.73295  0.27559  -0.13303
  -150.00  0.65863  0.44299  -0.05853
  -140.00  0.61125  0.64726  -0.00660
  -130.00  0.54716  0.86306  0.04365
  -120.00  0.44869  1.06297  0.09354
  -110.00  0.31771  1.22163  0.13980
  -100.00  0.16257  1.31852  0.17770
   -90.00  0.00001  1.34026  0.20260
   -80.00  -0.16256  1.31852  0.22099
   -70.00  -0.31769  1.22163  0.22433
   -60.00  -0.44867  1.06297  0.21569
   -50.00  -0.54714  0.86306  0.20065
   -40.00  -0.61124  0.64726  0.18838
   -30.00  -0.65862  0.44299  0.19572
   -20.00  -0.73107  0.27541  0.26707
   -10.00  -0.29911  0.12334  0.11806
    -4.17  -0.06688  0.03481  -0.12504
    -3.17  0.03902  0.03472  -0.12690
    -2.12  0.14864  0.03462  -0.12839
    -1.08  0.25918  0.03462  -0.13006
    -0.05  0.36880  0.03472  -0.13099
    -0.04  0.36905  0.03472  -0.13099
     1.17  0.49855  0.03492  -0.13218
     2.34  0.62051  0.03508  -0.13320
     3.52  0.74287  0.03540  -0.13390
     4.69  0.86137  0.03566  -0.13373
     5.86  0.97610  0.03601  -0.13289
     7.03  1.08488  0.03659  -0.13090
     8.20  1.17420  0.03722  -0.12542
    10.82  1.21479  0.04899  -0.09747
    13.43  1.06322  0.13121  -0.09003
    16.04  1.02669  0.18212  -0.09793
    18.65  1.05012  0.23281  -0.11021
    21.27  1.04429  0.29646  -0.13023
    23.88  1.01311  0.34032  -0.15565
    26.49  0.98192  0.38418  -0.18107
    29.10  0.95073  0.42804  -0.20649
    31.71  0.92859  0.47815  -0.22519
    34.33  0.91112  0.53149  -0.24043
    36.94  0.89366  0.58483  -0.25566
    39.55  0.87619  0.63817  -0.27089
    42.16  0.85330  0.69401  -0.28395
    44.78  0.82928  0.75036  -0.29657
    47.39  0.80527  0.80671  -0.30918
    50.00  0.78125  0.86306  -0.32179
    60.00  0.64098  1.06297  -0.36480
    70.00  0.45333  1.22163  -0.40224
    80.00  0.23224  1.31852  -0.43299
    90.00  0.00001  1.34026  -0.45510
   100.00  -0.16256  1.31852  -0.47340
   110.00  -0.31769  1.22163  -0.47684
   120.00  -0.44867  1.06297  -0.46810
   130.00  -0.54714  0.86306  -0.45315
   140.00  -0.61124  0.64726  -0.44079
   150.00  -0.65862  0.44299  -0.44813
   160.00  -0.73293  0.27559  -0.52022
   170.00  -0.36600  0.16607  -0.46448
   180.00  0.00001  0.12789  -0.00001
EOT
