AeroDyn airfoil file.  Compatible with AeroDyn v13.0.
Interpolated thickness: 0.956

  1        Number of airfoil tables in this file
  9990     Reynolds number in millions.  For efficiency, make very large if only one table.
  0        Control setting
  10.6369  Stall angle (deg)
  -1.90555 Zero lift angle of attack (deg)
  0.709275 Cn slope for zero lift (dimensionless)
  0.155266 Cn at stall value for positive angle of attack
  -0.8     Cn at stall value for negative angle of attack
  -2.12    Angle of attack for minimum CD (deg)
  0.330345 Minimum CD value
  -180.00  0.00009  0.33616  -0.00009
  -170.00  0.02290  0.33854  0.02306
  -160.00  0.04577  0.34536  -0.00838
  -150.00  0.04114  0.35580  -0.00374
  -140.00  0.03819  0.36853  -0.00051
  -130.00  0.03419  0.38198  0.00263
  -120.00  0.02806  0.39443  0.00574
  -110.00  0.01989  0.40432  0.00862
  -100.00  0.01023  0.41036  0.01098
   -90.00  0.00009  0.41172  0.01253
   -80.00  -0.01004  0.41036  0.01368
   -70.00  -0.01971  0.40432  0.01389
   -60.00  -0.02787  0.39443  0.01335
   -50.00  -0.03401  0.38198  0.01241
   -40.00  -0.03800  0.36853  0.01165
   -30.00  -0.04095  0.35580  0.01210
   -20.00  -0.04547  0.34535  0.01655
   -10.00  -0.01855  0.33587  0.00726
    -4.17  -0.00407  0.33036  -0.00789
    -3.17  0.00253  0.33035  -0.00800
    -2.12  0.00936  0.33034  -0.00810
    -1.08  0.01625  0.33034  -0.00820
    -0.05  0.02308  0.33035  -0.00826
    -0.00  0.02309  0.33035  -0.00826
     1.14  0.03116  0.33036  -0.00833
     2.29  0.03877  0.33037  -0.00840
     3.43  0.04639  0.33039  -0.00844
     4.58  0.05378  0.33041  -0.00843
     5.72  0.06093  0.33043  -0.00838
     6.87  0.06771  0.33047  -0.00825
     8.01  0.07327  0.33051  -0.00791
    10.64  0.07580  0.33124  -0.00617
    13.26  0.06636  0.33636  -0.00570
    15.89  0.06408  0.33954  -0.00620
    18.51  0.06554  0.34270  -0.00696
    21.13  0.06518  0.34666  -0.00821
    23.76  0.06323  0.34940  -0.00979
    26.38  0.06129  0.35213  -0.01138
    29.01  0.05935  0.35486  -0.01296
    31.63  0.05797  0.35799  -0.01413
    34.25  0.05688  0.36131  -0.01508
    36.88  0.05579  0.36464  -0.01603
    39.50  0.05470  0.36796  -0.01698
    42.13  0.05327  0.37144  -0.01779
    44.75  0.05178  0.37495  -0.01858
    47.38  0.05028  0.37846  -0.01936
    50.00  0.04878  0.38198  -0.02015
    60.00  0.04004  0.39443  -0.02283
    70.00  0.02835  0.40432  -0.02516
    80.00  0.01457  0.41036  -0.02708
    90.00  0.00009  0.41172  -0.02846
   100.00  -0.01004  0.41036  -0.02960
   110.00  -0.01971  0.40432  -0.02981
   120.00  -0.02787  0.39443  -0.02927
   130.00  -0.03401  0.38198  -0.02834
   140.00  -0.03800  0.36853  -0.02757
   150.00  -0.04095  0.35580  -0.02802
   160.00  -0.04558  0.34536  -0.03252
   170.00  -0.02272  0.33854  -0.02904
   180.00  0.00009  0.33616  -0.00009
EOT
