AeroDyn airfoil file.  Compatible with AeroDyn v13.0.
Interpolated thickness: 0.612

  1        Number of airfoil tables in this file
  9990     Reynolds number in millions.  For efficiency, make very large if only one table.
  0        Control setting
  10.7303  Stall angle (deg)
  -3.33713 Zero lift angle of attack (deg)
  3.5223   Cn slope for zero lift (dimensionless)
  0.864804 Cn at stall value for positive angle of attack
  -0.8     Cn at stall value for negative angle of attack
  -2.12    Angle of attack for minimum CD (deg)
  0.176676 Minimum CD value
  -180.00  0.00005  0.22793  -0.00005
  -170.00  0.20120  0.24892  0.20416
  -160.00  0.40285  0.30911  -0.07316
  -150.00  0.36201  0.40110  -0.03221
  -140.00  0.33598  0.51337  -0.00367
  -130.00  0.30075  0.63196  0.02395
  -120.00  0.24663  0.74183  0.05136
  -110.00  0.17465  0.82903  0.07679
  -100.00  0.08939  0.88227  0.09761
   -90.00  0.00005  0.89422  0.11130
   -80.00  -0.08929  0.88227  0.12141
   -70.00  -0.17455  0.82903  0.12324
   -60.00  -0.24654  0.74183  0.11850
   -50.00  -0.30065  0.63196  0.11022
   -40.00  -0.33588  0.51337  0.10349
   -30.00  -0.36191  0.40110  0.10752
   -20.00  -0.40174  0.30900  0.14673
   -10.00  -0.16434  0.22543  0.06484
    -4.17  -0.03671  0.17678  -0.06877
    -3.17  0.02149  0.17673  -0.06979
    -2.12  0.08173  0.17668  -0.07060
    -1.08  0.14249  0.17668  -0.07152
    -0.05  0.20273  0.17673  -0.07203
    -0.02  0.20287  0.17673  -0.07203
     1.16  0.27403  0.17684  -0.07269
     2.32  0.34106  0.17693  -0.07325
     3.48  0.40831  0.17710  -0.07363
     4.64  0.47344  0.17725  -0.07354
     5.79  0.53649  0.17744  -0.07308
     6.95  0.59627  0.17776  -0.07199
     8.11  0.64535  0.17811  -0.06897
    10.73  0.66766  0.18457  -0.05361
    13.35  0.58437  0.22976  -0.04952
    15.97  0.56429  0.25773  -0.05386
    18.58  0.57717  0.28560  -0.06062
    21.20  0.57396  0.32057  -0.07161
    23.82  0.55682  0.34468  -0.08558
    26.44  0.53968  0.36878  -0.09955
    29.06  0.52254  0.39289  -0.11353
    31.67  0.51037  0.42043  -0.12381
    34.29  0.50078  0.44974  -0.13218
    36.91  0.49118  0.47906  -0.14055
    39.53  0.48158  0.50837  -0.14892
    42.15  0.46900  0.53906  -0.15610
    44.76  0.45580  0.57003  -0.16303
    47.38  0.44260  0.60100  -0.16996
    50.00  0.42940  0.63196  -0.17690
    60.00  0.35231  0.74183  -0.20053
    70.00  0.24919  0.82903  -0.22111
    80.00  0.12768  0.88227  -0.23801
    90.00  0.00005  0.89422  -0.25016
   100.00  -0.08929  0.88227  -0.26021
   110.00  -0.17455  0.82903  -0.26210
   120.00  -0.24654  0.74183  -0.25730
   130.00  -0.30065  0.63196  -0.24908
   140.00  -0.33588  0.51337  -0.24229
   150.00  -0.36191  0.40110  -0.24633
   160.00  -0.40276  0.30911  -0.28594
   170.00  -0.20110  0.24892  -0.25531
   180.00  0.00005  0.22793  -0.00005
EOT
