AeroDyn airfoil file.  Compatible with AeroDyn v13.0.
Interpolated thickness: 0.8

  1        Number of airfoil tables in this file
  9990     Reynolds number in millions.  For efficiency, make very large if only one table.
  0        Control setting
  10.6793  Stall angle (deg)
  -3.10066 Zero lift angle of attack (deg)
  1.97439  Cn slope for zero lift (dimensionless)
  0.474852 Cn at stall value for positive angle of attack
  -0.8     Cn at stall value for negative angle of attack
  -2.12    Angle of attack for minimum CD (deg)
  0.260658 Minimum CD value
  -180.00  0.00007  0.28708  -0.00007
  -170.00  0.10376  0.29789  0.10519
  -160.00  0.20771  0.32892  -0.03776
  -150.00  0.18665  0.37634  -0.01665
  -140.00  0.17323  0.43421  -0.00194
  -130.00  0.15507  0.49534  0.01229
  -120.00  0.12718  0.55197  0.02643
  -110.00  0.09007  0.59692  0.03953
  -100.00  0.04613  0.62437  0.05027
   -90.00  0.00007  0.63053  0.05732
   -80.00  -0.04598  0.62437  0.06253
   -70.00  -0.08993  0.59692  0.06348
   -60.00  -0.12703  0.55197  0.06103
   -50.00  -0.15493  0.49534  0.05677
   -40.00  -0.17308  0.43421  0.05329
   -30.00  -0.18651  0.37634  0.05537
   -20.00  -0.20703  0.32887  0.07558
   -10.00  -0.08466  0.28579  0.03337
    -4.17  -0.01887  0.26071  -0.03549
    -3.17  0.01113  0.26068  -0.03602
    -2.12  0.04218  0.26066  -0.03644
    -1.08  0.07349  0.26066  -0.03692
    -0.05  0.10455  0.26068  -0.03718
    -0.01  0.10462  0.26068  -0.03718
     1.15  0.14130  0.26074  -0.03752
     2.30  0.17585  0.26079  -0.03781
     3.45  0.21052  0.26088  -0.03800
     4.60  0.24409  0.26095  -0.03795
     5.76  0.27659  0.26105  -0.03772
     6.91  0.30740  0.26121  -0.03715
     8.06  0.33271  0.26139  -0.03560
    10.68  0.34420  0.26473  -0.02768
    13.30  0.30127  0.28802  -0.02557
    15.92  0.29092  0.30244  -0.02781
    18.54  0.29756  0.31680  -0.03129
    21.16  0.29591  0.33483  -0.03696
    23.79  0.28707  0.34726  -0.04416
    26.41  0.27824  0.35968  -0.05137
    29.03  0.26940  0.37211  -0.05857
    31.65  0.26313  0.38630  -0.06387
    34.27  0.25818  0.40141  -0.06818
    36.89  0.25323  0.41652  -0.07250
    39.51  0.24829  0.43164  -0.07681
    42.14  0.24180  0.44745  -0.08051
    44.76  0.23500  0.46342  -0.08408
    47.38  0.22819  0.47938  -0.08766
    50.00  0.22139  0.49534  -0.09123
    60.00  0.18165  0.55197  -0.10342
    70.00  0.12849  0.59692  -0.11402
    80.00  0.06586  0.62437  -0.12273
    90.00  0.00007  0.63053  -0.12899
   100.00  -0.04598  0.62437  -0.13418
   110.00  -0.08993  0.59692  -0.13515
   120.00  -0.12703  0.55197  -0.13268
   130.00  -0.15493  0.49534  -0.12844
   140.00  -0.17308  0.43421  -0.12494
   150.00  -0.18651  0.37634  -0.12702
   160.00  -0.20756  0.32892  -0.14744
   170.00  -0.10361  0.29789  -0.13165
   180.00  0.00007  0.28708  -0.00007
EOT
