AeroDyn airfoil file.  Compatible with AeroDyn v13.0.
Interpolated thickness: 0.871

  1        Number of airfoil tables in this file
  9990     Reynolds number in millions.  For efficiency, make very large if only one table.
  0        Control setting
  10.66    Stall angle (deg)
  -2.82101 Zero lift angle of attack (deg)
  1.40048  Cn slope for zero lift (dimensionless)
  0.329517 Cn at stall value for positive angle of attack
  -0.8     Cn at stall value for negative angle of attack
  -2.12    Angle of attack for minimum CD (deg)
  0.292374 Minimum CD value
  -180.00  0.00008  0.30942  -0.00008
  -170.00  0.06696  0.31639  0.06781
  -160.00  0.13401  0.33640  -0.02439
  -150.00  0.12043  0.36699  -0.01078
  -140.00  0.11177  0.40432  -0.00129
  -130.00  0.10006  0.44375  0.00789
  -120.00  0.08207  0.48027  0.01701
  -110.00  0.05813  0.50926  0.02546
  -100.00  0.02979  0.52697  0.03239
   -90.00  0.00008  0.53094  0.03694
   -80.00  -0.02962  0.52697  0.04030
   -70.00  -0.05797  0.50926  0.04091
   -60.00  -0.08190  0.48027  0.03933
   -50.00  -0.09989  0.44375  0.03658
   -40.00  -0.11160  0.40432  0.03434
   -30.00  -0.12026  0.36699  0.03568
   -20.00  -0.13350  0.33637  0.04872
   -10.00  -0.05457  0.30858  0.02149
    -4.17  -0.01214  0.29241  -0.02293
    -3.17  0.00721  0.29239  -0.02327
    -2.12  0.02724  0.29237  -0.02354
    -1.08  0.04744  0.29237  -0.02385
    -0.05  0.06747  0.29239  -0.02402
    -0.01  0.06752  0.29239  -0.02402
     1.15  0.09118  0.29243  -0.02423
     2.30  0.11346  0.29246  -0.02442
     3.44  0.13582  0.29252  -0.02455
     4.59  0.15747  0.29256  -0.02452
     5.74  0.17843  0.29263  -0.02436
     6.89  0.19831  0.29273  -0.02400
     8.04  0.21463  0.29285  -0.02300
    10.66  0.22205  0.29500  -0.01789
    13.28  0.19435  0.31002  -0.01653
    15.91  0.18768  0.31932  -0.01798
    18.53  0.19196  0.32859  -0.02022
    21.15  0.19089  0.34022  -0.02388
    23.77  0.18520  0.34823  -0.02852
    26.40  0.17950  0.35624  -0.03317
    29.02  0.17380  0.36426  -0.03781
    31.64  0.16975  0.37342  -0.04123
    34.26  0.16656  0.38316  -0.04401
    36.89  0.16337  0.39291  -0.04680
    39.51  0.16018  0.40265  -0.04958
    42.13  0.15600  0.41286  -0.05197
    44.75  0.15161  0.42315  -0.05427
    47.38  0.14722  0.43345  -0.05658
    50.00  0.14283  0.44375  -0.05888
    60.00  0.11720  0.48027  -0.06674
    70.00  0.08291  0.50926  -0.07358
    80.00  0.04252  0.52697  -0.07920
    90.00  0.00008  0.53094  -0.08324
   100.00  -0.02962  0.52697  -0.08658
   110.00  -0.05797  0.50926  -0.08721
   120.00  -0.08190  0.48027  -0.08561
   130.00  -0.09989  0.44375  -0.08288
   140.00  -0.11160  0.40432  -0.08062
   150.00  -0.12026  0.36699  -0.08196
   160.00  -0.13384  0.33640  -0.09514
   170.00  -0.06679  0.31639  -0.08495
   180.00  0.00008  0.30942  -0.00008
EOT
