AeroDyn airfoil file.  Compatible with AeroDyn v13.0.
Interpolated thickness: 0.753

  1        Number of airfoil tables in this file
  9990     Reynolds number in millions.  For efficiency, make very large if only one table.
  0        Control setting
  10.692   Stall angle (deg)
  -3.13282 Zero lift angle of attack (deg)
  2.38505  Cn slope for zero lift (dimensionless)
  0.575487 Cn at stall value for positive angle of attack
  -0.8     Cn at stall value for negative angle of attack
  -2.12    Angle of attack for minimum CD (deg)
  0.239663 Minimum CD value
  -180.00  0.00007  0.27229  -0.00007
  -170.00  0.12812  0.28565  0.12993
  -160.00  0.25649  0.32397  -0.04661
  -150.00  0.23049  0.38253  -0.02054
  -140.00  0.21392  0.45400  -0.00237
  -130.00  0.19149  0.52950  0.01521
  -120.00  0.15704  0.59944  0.03266
  -110.00  0.11122  0.65495  0.04884
  -100.00  0.05694  0.68884  0.06210
   -90.00  0.00007  0.69645  0.07081
   -80.00  -0.05681  0.68884  0.07725
   -70.00  -0.11108  0.65495  0.07842
   -60.00  -0.15691  0.59944  0.07540
   -50.00  -0.19136  0.52950  0.07013
   -40.00  -0.21378  0.45400  0.06584
   -30.00  -0.23036  0.38253  0.06841
   -20.00  -0.25571  0.32390  0.09337
   -10.00  -0.10458  0.27070  0.04124
    -4.17  -0.02333  0.23973  -0.04381
    -3.17  0.01372  0.23969  -0.04446
    -2.12  0.05207  0.23966  -0.04498
    -1.08  0.09074  0.23966  -0.04557
    -0.05  0.12909  0.23969  -0.04589
    -0.02  0.12918  0.23970  -0.04589
     1.15  0.17449  0.23977  -0.04631
     2.31  0.21716  0.23982  -0.04667
     3.46  0.25996  0.23993  -0.04691
     4.61  0.30142  0.24003  -0.04685
     5.77  0.34156  0.24015  -0.04656
     6.92  0.37962  0.24035  -0.04586
     8.07  0.41087  0.24057  -0.04394
    10.69  0.42507  0.24469  -0.03417
    13.31  0.37204  0.27346  -0.03156
    15.93  0.35926  0.29126  -0.03433
    18.55  0.36746  0.30900  -0.03862
    21.17  0.36542  0.33127  -0.04563
    23.79  0.35451  0.34661  -0.05452
    26.42  0.34360  0.36196  -0.06341
    29.04  0.33269  0.37730  -0.07231
    31.66  0.32494  0.39483  -0.07885
    34.28  0.31883  0.41350  -0.08418
    36.90  0.31272  0.43216  -0.08951
    39.52  0.30661  0.45082  -0.09484
    42.14  0.29860  0.47035  -0.09941
    44.76  0.29020  0.49007  -0.10382
    47.38  0.28179  0.50978  -0.10823
    50.00  0.27339  0.52950  -0.11265
    60.00  0.22432  0.59944  -0.12769
    70.00  0.15867  0.65495  -0.14079
    80.00  0.08132  0.68884  -0.15155
    90.00  0.00007  0.69645  -0.15928
   100.00  -0.05681  0.68884  -0.16569
   110.00  -0.11108  0.65495  -0.16689
   120.00  -0.15691  0.59944  -0.16383
   130.00  -0.19136  0.52950  -0.15860
   140.00  -0.21378  0.45400  -0.15428
   150.00  -0.23036  0.38253  -0.15685
   160.00  -0.25636  0.32397  -0.18207
   170.00  -0.12798  0.28565  -0.16257
   180.00  0.00007  0.27229  -0.00007
EOT
