AeroDyn airfoil file.  Compatible with AeroDyn v13.0.
Interpolated thickness: 0.227

  1        Number of airfoil tables in this file
  9990     Reynolds number in millions.  For efficiency, make very large if only one table.
  0        Control setting
  9.57153  Stall angle (deg)
  -3.88674 Zero lift angle of attack (deg)
  6.44852  Cn slope for zero lift (dimensionless)
  1.5147   Cn at stall value for positive angle of attack
  -0.8     Cn at stall value for negative angle of attack
  -2.02    Angle of attack for minimum CD (deg)
  0.00981286 Minimum CD value
  -180.00  0.00000  0.12578  0.00000
  -170.00  0.39530  0.16663  0.40000
  -160.00  0.79160  0.28387  -0.14216
  -150.00  0.70937  0.46297  -0.06280
  -140.00  0.65837  0.68138  -0.00706
  -130.00  0.58919  0.91185  0.04687
  -120.00  0.48319  1.12493  0.10022
  -110.00  0.34200  1.29339  0.14939
  -100.00  0.17500  1.39518  0.18935
   -90.00  0.00000  1.41600  0.21513
   -80.00  -0.17500  1.39518  0.23517
   -70.00  -0.34200  1.29339  0.23905
   -60.00  -0.48319  1.12493  0.22997
   -50.00  -0.58919  0.91185  0.21388
   -40.00  -0.65837  0.68138  0.20057
   -30.00  -0.70937  0.46297  0.20797
   -20.00  -0.78979  0.28365  0.28418
   -10.00  -0.31123  0.10576  0.11310
    -6.04  -0.13748  0.03541  -0.06833
    -5.04  -0.07954  0.02156  -0.10683
    -4.09  -0.02205  0.00993  -0.13921
    -3.02  0.09844  0.00986  -0.14111
    -2.02  0.20980  0.00981  -0.14248
    -1.03  0.32155  0.00984  -0.14392
    -0.04  0.43325  0.00995  -0.14488
     1.24  0.57803  0.01018  -0.14598
     2.48  0.71627  0.01045  -0.14703
     3.72  0.85396  0.01084  -0.14763
     4.96  0.98470  0.01117  -0.14679
     6.20  1.11071  0.01176  -0.14501
     7.44  1.21739  0.01246  -0.13977
     9.57  1.28551  0.02014  -0.11790
    11.70  1.20542  0.06475  -0.10288
    13.83  1.19387  0.11560  -0.10482
    15.95  1.18167  0.16228  -0.10885
    18.08  1.16991  0.21899  -0.12103
    20.21  1.15277  0.28118  -0.13562
    22.34  1.11195  0.32561  -0.15965
    24.47  1.08443  0.36381  -0.18163
    26.59  1.05691  0.40201  -0.20361
    28.72  1.02939  0.44021  -0.22559
    30.85  1.00739  0.48223  -0.24346
    32.98  0.99127  0.52820  -0.25718
    35.11  0.97591  0.57465  -0.27043
    37.23  0.96055  0.62110  -0.28368
    39.36  0.94519  0.66755  -0.29692
    41.49  0.92579  0.71582  -0.30857
    43.62  0.90464  0.76483  -0.31955
    45.74  0.88349  0.81383  -0.33053
    47.87  0.86234  0.86284  -0.34151
    50.00  0.84119  0.91185  -0.35249
    60.00  0.69019  1.12493  -0.39827
    70.00  0.48819  1.29339  -0.43788
    80.00  0.25000  1.39518  -0.47009
    90.00  0.00000  1.41600  -0.49287
   100.00  -0.17500  1.39518  -0.51283
   110.00  -0.34200  1.29339  -0.51679
   120.00  -0.48319  1.12493  -0.50763
   130.00  -0.58919  0.91185  -0.49163
   140.00  -0.65837  0.68138  -0.47823
   150.00  -0.70937  0.46297  -0.48563
   160.00  -0.79160  0.28387  -0.56254
   170.00  -0.39530  0.16663  -0.50000
   180.00  0.00000  0.12578  0.00000
EOT
