AeroDyn airfoil file.  Compatible with AeroDyn v13.0.
Interpolated thickness: 0.35

  1        Number of airfoil tables in this file
  9990     Reynolds number in millions.  For efficiency, make very large if only one table.
  0        Control setting
  10.8014  Stall angle (deg)
  -3.53341 Zero lift angle of attack (deg)
  5.5895   Cn slope for zero lift (dimensionless)
  1.39843  Cn at stall value for positive angle of attack
  -0.8     Cn at stall value for negative angle of attack
  -2.12    Angle of attack for minimum CD (deg)
  0.0596382 Minimum CD value
  -180.00  0.00001  0.14551  -0.00001
  -170.00  0.33699  0.18066  0.34209
  -160.00  0.67482  0.28149  -0.12249
  -150.00  0.60640  0.43561  -0.05390
  -140.00  0.56278  0.62368  -0.00609
  -130.00  0.50376  0.82236  0.04018
  -120.00  0.41311  1.00641  0.08611
  -110.00  0.29251  1.15249  0.12870
  -100.00  0.14969  1.24170  0.16360
   -90.00  0.00001  1.26171  0.18652
   -80.00  -0.14966  1.24170  0.20345
   -70.00  -0.29249  1.15249  0.20653
   -60.00  -0.41308  1.00641  0.19858
   -50.00  -0.50374  0.82236  0.18472
   -40.00  -0.56275  0.62368  0.17343
   -30.00  -0.60637  0.43561  0.18019
   -20.00  -0.67308  0.28132  0.24587
   -10.00  -0.27538  0.14132  0.10869
    -4.17  -0.06156  0.05981  -0.11513
    -3.17  0.03594  0.05972  -0.11684
    -2.12  0.13686  0.05964  -0.11821
    -1.08  0.23863  0.05964  -0.11975
    -0.05  0.33955  0.05972  -0.12061
    -0.04  0.33979  0.05972  -0.12061
     1.17  0.45901  0.05991  -0.12171
     2.34  0.57130  0.06006  -0.12265
     3.51  0.68395  0.06035  -0.12329
     4.68  0.79306  0.06059  -0.12313
     5.85  0.89869  0.06091  -0.12236
     7.02  0.99883  0.06145  -0.12053
     8.19  1.08107  0.06203  -0.11548
    10.80  1.11844  0.07287  -0.08975
    13.41  0.97890  0.14857  -0.08289
    16.03  0.94526  0.19543  -0.09017
    18.64  0.96683  0.24211  -0.10148
    21.25  0.96147  0.30070  -0.11990
    23.87  0.93276  0.34108  -0.14331
    26.48  0.90404  0.38147  -0.16671
    29.09  0.87533  0.42185  -0.19012
    31.71  0.85494  0.46798  -0.20734
    34.32  0.83886  0.51709  -0.22136
    36.93  0.82278  0.56620  -0.23539
    39.55  0.80670  0.61531  -0.24941
    42.16  0.78562  0.66672  -0.26144
    44.77  0.76351  0.71860  -0.27305
    47.39  0.74140  0.77048  -0.28466
    50.00  0.71929  0.82236  -0.29628
    60.00  0.59015  1.00641  -0.33588
    70.00  0.41738  1.15249  -0.37034
    80.00  0.21383  1.24170  -0.39865
    90.00  0.00001  1.26171  -0.41901
   100.00  -0.14966  1.24170  -0.43586
   110.00  -0.29249  1.15249  -0.43902
   120.00  -0.41308  1.00641  -0.43098
   130.00  -0.50374  0.82236  -0.41721
   140.00  -0.56275  0.62368  -0.40584
   150.00  -0.60637  0.43561  -0.41259
   160.00  -0.67479  0.28149  -0.47896
   170.00  -0.33696  0.18066  -0.42765
   180.00  0.00001  0.14551  -0.00001
EOT
