AeroDyn airfoil file.  Compatible with AeroDyn v13.0.
Interpolated thickness: 0.861

  1        Number of airfoil tables in this file
  9990     Reynolds number in millions.  For efficiency, make very large if only one table.
  0        Control setting
  10.6627  Stall angle (deg)
  -2.87314 Zero lift angle of attack (deg)
  1.4815   Cn slope for zero lift (dimensionless)
  0.349998 Cn at stall value for positive angle of attack
  -0.8     Cn at stall value for negative angle of attack
  -2.12    Angle of attack for minimum CD (deg)
  0.287907 Minimum CD value
  -180.00  0.00008  0.30627  -0.00008
  -170.00  0.07214  0.31379  0.07308
  -160.00  0.14439  0.33535  -0.02627
  -150.00  0.12975  0.36831  -0.01160
  -140.00  0.12043  0.40853  -0.00138
  -130.00  0.10781  0.45101  0.00851
  -120.00  0.08842  0.49037  0.01834
  -110.00  0.06263  0.52161  0.02744
  -100.00  0.03209  0.54069  0.03491
   -90.00  0.00008  0.54497  0.03981
   -80.00  -0.03192  0.54069  0.04343
   -70.00  -0.06247  0.52161  0.04409
   -60.00  -0.08826  0.49037  0.04239
   -50.00  -0.10764  0.45101  0.03942
   -40.00  -0.12026  0.40853  0.03701
   -30.00  -0.12959  0.36831  0.03845
   -20.00  -0.14386  0.33531  0.05250
   -10.00  -0.05881  0.30537  0.02316
    -4.17  -0.01309  0.28794  -0.02470
    -3.17  0.00776  0.28793  -0.02507
    -2.12  0.02934  0.28791  -0.02536
    -1.08  0.05111  0.28791  -0.02569
    -0.05  0.07269  0.28793  -0.02587
    -0.01  0.07274  0.28793  -0.02587
     1.15  0.09824  0.28797  -0.02611
     2.30  0.12225  0.28800  -0.02631
     3.45  0.14634  0.28806  -0.02644
     4.59  0.16967  0.28811  -0.02641
     5.74  0.19226  0.28818  -0.02624
     6.89  0.21368  0.28829  -0.02585
     8.04  0.23126  0.28842  -0.02477
    10.66  0.23925  0.29074  -0.01927
    13.29  0.20941  0.30692  -0.01780
    15.91  0.20222  0.31695  -0.01936
    18.53  0.20683  0.32693  -0.02178
    21.15  0.20569  0.33946  -0.02572
    23.78  0.19954  0.34809  -0.03072
    26.40  0.19340  0.35673  -0.03573
    29.02  0.18726  0.36536  -0.04073
    31.64  0.18290  0.37523  -0.04442
    34.27  0.17947  0.38573  -0.04742
    36.89  0.17603  0.39623  -0.05042
    39.51  0.17259  0.40674  -0.05341
    42.13  0.16808  0.41773  -0.05599
    44.76  0.16335  0.42882  -0.05847
    47.38  0.15862  0.43992  -0.06095
    50.00  0.15390  0.45101  -0.06344
    60.00  0.12628  0.49037  -0.07190
    70.00  0.08933  0.52161  -0.07928
    80.00  0.04581  0.54069  -0.08533
    90.00  0.00008  0.54497  -0.08968
   100.00  -0.03192  0.54069  -0.09328
   110.00  -0.06247  0.52161  -0.09396
   120.00  -0.08826  0.49037  -0.09224
   130.00  -0.10764  0.45101  -0.08930
   140.00  -0.12026  0.40853  -0.08687
   150.00  -0.12959  0.36831  -0.08831
   160.00  -0.14422  0.33535  -0.10250
   170.00  -0.07198  0.31379  -0.09153
   180.00  0.00008  0.30627  -0.00008
EOT
