AeroDyn airfoil file.  Compatible with AeroDyn v13.0.
Interpolated thickness: 0.979

  1        Number of airfoil tables in this file
  9990     Reynolds number in millions.  For efficiency, make very large if only one table.
  0        Control setting
  10.6307  Stall angle (deg)
  -1.24314 Zero lift angle of attack (deg)
  0.521464 Cn slope for zero lift (dimensionless)
  0.108067 Cn at stall value for positive angle of attack
  -0.8     Cn at stall value for negative angle of attack
  -2.12    Angle of attack for minimum CD (deg)
  0.340619 Minimum CD value
  -180.00  0.00010  0.34339  -0.00010
  -170.00  0.01098  0.34453  0.01096
  -160.00  0.02190  0.34779  -0.00405
  -150.00  0.01969  0.35277  -0.00184
  -140.00  0.01828  0.35884  -0.00029
  -130.00  0.01637  0.36526  0.00120
  -120.00  0.01344  0.37121  0.00269
  -110.00  0.00955  0.37593  0.00406
  -100.00  0.00493  0.37881  0.00519
   -90.00  0.00010  0.37946  0.00593
   -80.00  -0.00474  0.37881  0.00648
   -70.00  -0.00935  0.37593  0.00658
   -60.00  -0.01325  0.37121  0.00632
   -50.00  -0.01618  0.36526  0.00587
   -40.00  -0.01808  0.35884  0.00551
   -30.00  -0.01949  0.35277  0.00572
   -20.00  -0.02165  0.34778  0.00785
   -10.00  -0.00880  0.34326  0.00341
    -4.17  -0.00189  0.34062  -0.00382
    -3.17  0.00126  0.34062  -0.00387
    -2.12  0.00452  0.34062  -0.00392
    -1.08  0.00781  0.34062  -0.00397
    -0.05  0.01107  0.34062  -0.00399
    -0.00  0.01107  0.34062  -0.00399
     1.14  0.01493  0.34063  -0.00403
     2.29  0.01855  0.34063  -0.00406
     3.43  0.02219  0.34064  -0.00408
     4.57  0.02572  0.34065  -0.00407
     5.72  0.02913  0.34066  -0.00405
     6.86  0.03237  0.34068  -0.00399
     8.01  0.03502  0.34070  -0.00383
    10.63  0.03623  0.34105  -0.00300
    13.26  0.03172  0.34349  -0.00277
    15.88  0.03064  0.34501  -0.00301
    18.50  0.03133  0.34651  -0.00338
    21.13  0.03116  0.34841  -0.00397
    23.75  0.03023  0.34971  -0.00473
    26.38  0.02930  0.35102  -0.00548
    29.00  0.02838  0.35232  -0.00624
    31.63  0.02772  0.35381  -0.00680
    34.25  0.02720  0.35540  -0.00725
    36.88  0.02668  0.35699  -0.00770
    39.50  0.02616  0.35857  -0.00815
    42.13  0.02548  0.36023  -0.00854
    44.75  0.02476  0.36191  -0.00892
    47.38  0.02405  0.36358  -0.00929
    50.00  0.02334  0.36526  -0.00967
    60.00  0.01916  0.37121  -0.01095
    70.00  0.01358  0.37593  -0.01206
    80.00  0.00701  0.37881  -0.01298
    90.00  0.00010  0.37946  -0.01363
   100.00  -0.00474  0.37881  -0.01418
   110.00  -0.00935  0.37593  -0.01428
   120.00  -0.01325  0.37121  -0.01402
   130.00  -0.01618  0.36526  -0.01358
   140.00  -0.01808  0.35884  -0.01321
   150.00  -0.01949  0.35277  -0.01343
   160.00  -0.02170  0.34779  -0.01557
   170.00  -0.01079  0.34453  -0.01391
   180.00  0.00010  0.34339  -0.00010
EOT
