AeroDyn airfoil file.  Compatible with AeroDyn v13.0.
Interpolated thickness: 0.798

  1        Number of airfoil tables in this file
  9990     Reynolds number in millions.  For efficiency, make very large if only one table.
  0        Control setting
  10.6798  Stall angle (deg)
  -3.10627 Zero lift angle of attack (deg)
  1.99052  Cn slope for zero lift (dimensionless)
  0.478943 Cn at stall value for positive angle of attack
  -0.8     Cn at stall value for negative angle of attack
  -2.12    Angle of attack for minimum CD (deg)
  0.259764 Minimum CD value
  -180.00  0.00007  0.28645  -0.00007
  -170.00  0.10479  0.29737  0.10624
  -160.00  0.20978  0.32871  -0.03813
  -150.00  0.18852  0.37661  -0.01682
  -140.00  0.17496  0.43505  -0.00196
  -130.00  0.15662  0.49680  0.01242
  -120.00  0.12845  0.55399  0.02669
  -110.00  0.09097  0.59939  0.03993
  -100.00  0.04659  0.62711  0.05077
   -90.00  0.00007  0.63333  0.05790
   -80.00  -0.04644  0.62711  0.06316
   -70.00  -0.09083  0.59939  0.06411
   -60.00  -0.12830  0.55399  0.06164
   -50.00  -0.15648  0.49680  0.05734
   -40.00  -0.17482  0.43505  0.05383
   -30.00  -0.18837  0.37661  0.05593
   -20.00  -0.20910  0.32866  0.07634
   -10.00  -0.08551  0.28515  0.03371
    -4.17  -0.01906  0.25982  -0.03585
    -3.17  0.01124  0.25979  -0.03638
    -2.12  0.04260  0.25976  -0.03681
    -1.08  0.07423  0.25976  -0.03728
    -0.05  0.10559  0.25979  -0.03755
    -0.01  0.10566  0.25979  -0.03755
     1.15  0.14271  0.25985  -0.03789
     2.30  0.17761  0.25990  -0.03818
     3.45  0.21262  0.25999  -0.03838
     4.60  0.24653  0.26006  -0.03833
     5.76  0.27935  0.26016  -0.03809
     6.91  0.31048  0.26033  -0.03753
     8.06  0.33603  0.26051  -0.03595
    10.68  0.34765  0.26388  -0.02796
    13.30  0.30428  0.28740  -0.02583
    15.92  0.29383  0.30196  -0.02809
    18.54  0.30053  0.31647  -0.03161
    21.17  0.29886  0.33468  -0.03733
    23.79  0.28994  0.34723  -0.04460
    26.41  0.28102  0.35978  -0.05188
    29.03  0.27209  0.37233  -0.05915
    31.65  0.26576  0.38667  -0.06450
    34.27  0.26076  0.40193  -0.06886
    36.89  0.25576  0.41719  -0.07322
    39.51  0.25077  0.43245  -0.07758
    42.14  0.24422  0.44843  -0.08132
    44.76  0.23734  0.46455  -0.08492
    47.38  0.23047  0.48067  -0.08853
    50.00  0.22360  0.49680  -0.09214
    60.00  0.18347  0.55399  -0.10445
    70.00  0.12978  0.59939  -0.11516
    80.00  0.06652  0.62711  -0.12396
    90.00  0.00007  0.63333  -0.13028
   100.00  -0.04644  0.62711  -0.13552
   110.00  -0.09083  0.59939  -0.13650
   120.00  -0.12830  0.55399  -0.13400
   130.00  -0.15648  0.49680  -0.12973
   140.00  -0.17482  0.43505  -0.12619
   150.00  -0.18837  0.37661  -0.12829
   160.00  -0.20963  0.32871  -0.14892
   170.00  -0.10465  0.29737  -0.13297
   180.00  0.00007  0.28645  -0.00007
EOT
