AeroDyn airfoil file.  Compatible with AeroDyn v13.0.
Interpolated thickness: 0.756

  1        Number of airfoil tables in this file
  9990     Reynolds number in millions.  For efficiency, make very large if only one table.
  0        Control setting
  10.6912  Stall angle (deg)
  -3.12665 Zero lift angle of attack (deg)
  2.36066  Cn slope for zero lift (dimensionless)
  0.569315 Cn at stall value for positive angle of attack
  -0.8     Cn at stall value for negative angle of attack
  -2.12    Angle of attack for minimum CD (deg)
  0.241003 Minimum CD value
  -180.00  0.00007  0.27324  -0.00007
  -170.00  0.12656  0.28643  0.12835
  -160.00  0.25338  0.32428  -0.04604
  -150.00  0.22769  0.38214  -0.02029
  -140.00  0.21132  0.45274  -0.00235
  -130.00  0.18917  0.52732  0.01502
  -120.00  0.15514  0.59641  0.03226
  -110.00  0.10987  0.65124  0.04825
  -100.00  0.05625  0.68473  0.06135
   -90.00  0.00007  0.69224  0.06995
   -80.00  -0.05612  0.68473  0.07631
   -70.00  -0.10973  0.65124  0.07747
   -60.00  -0.15500  0.59641  0.07448
   -50.00  -0.18903  0.52732  0.06928
   -40.00  -0.21118  0.45274  0.06504
   -30.00  -0.22756  0.38214  0.06758
   -20.00  -0.25260  0.32422  0.09223
   -10.00  -0.10331  0.27166  0.04074
    -4.17  -0.02305  0.24107  -0.04328
    -3.17  0.01355  0.24103  -0.04392
    -2.12  0.05144  0.24100  -0.04444
    -1.08  0.08964  0.24100  -0.04502
    -0.05  0.12753  0.24103  -0.04534
    -0.02  0.12761  0.24103  -0.04534
     1.15  0.17237  0.24110  -0.04575
     2.31  0.21452  0.24116  -0.04610
     3.46  0.25681  0.24127  -0.04634
     4.61  0.29776  0.24136  -0.04628
     5.76  0.33742  0.24148  -0.04599
     6.92  0.37501  0.24168  -0.04531
     8.07  0.40588  0.24190  -0.04341
    10.69  0.41991  0.24597  -0.03375
    13.31  0.36752  0.27439  -0.03118
    15.93  0.35490  0.29198  -0.03391
    18.55  0.36300  0.30950  -0.03816
    21.17  0.36098  0.33149  -0.04507
    23.79  0.35020  0.34665  -0.05386
    26.41  0.33943  0.36181  -0.06264
    29.04  0.32865  0.37697  -0.07143
    31.66  0.32099  0.39429  -0.07789
    34.28  0.31496  0.41272  -0.08316
    36.90  0.30892  0.43116  -0.08842
    39.52  0.30289  0.44960  -0.09369
    42.14  0.29497  0.46889  -0.09820
    44.76  0.28667  0.48837  -0.10256
    47.38  0.27837  0.50784  -0.10692
    50.00  0.27007  0.52732  -0.11128
    60.00  0.22159  0.59641  -0.12615
    70.00  0.15674  0.65124  -0.13908
    80.00  0.08033  0.68473  -0.14971
    90.00  0.00007  0.69224  -0.15735
   100.00  -0.05612  0.68473  -0.16368
   110.00  -0.10973  0.65124  -0.16486
   120.00  -0.15500  0.59641  -0.16185
   130.00  -0.18903  0.52732  -0.15668
   140.00  -0.21118  0.45274  -0.15241
   150.00  -0.22756  0.38214  -0.15494
   160.00  -0.25324  0.32428  -0.17986
   170.00  -0.12643  0.28643  -0.16059
   180.00  0.00007  0.27324  -0.00007
EOT
