AeroDyn airfoil file.  Compatible with AeroDyn v13.0.
Interpolated thickness: 0.415

  1        Number of airfoil tables in this file
  9990     Reynolds number in millions.  For efficiency, make very large if only one table.
  0        Control setting
  10.7838  Stall angle (deg)
  -3.49495 Zero lift angle of attack (deg)
  5.08213  Cn slope for zero lift (dimensionless)
  1.26652  Cn at stall value for positive angle of attack
  -0.8     Cn at stall value for negative angle of attack
  -2.12    Angle of attack for minimum CD (deg)
  0.0886743 Minimum CD value
  -180.00  0.00002  0.16596  -0.00002
  -170.00  0.30330  0.19759  0.30787
  -160.00  0.60735  0.28834  -0.11025
  -150.00  0.54577  0.42705  -0.04852
  -140.00  0.50651  0.59632  -0.00549
  -130.00  0.45340  0.77513  0.03615
  -120.00  0.37181  0.94077  0.07749
  -110.00  0.26327  1.07224  0.11582
  -100.00  0.13473  1.15253  0.14723
   -90.00  0.00002  1.17054  0.16786
   -80.00  -0.13468  1.15253  0.18310
   -70.00  -0.26323  1.07224  0.18587
   -60.00  -0.37176  0.94077  0.17871
   -50.00  -0.45335  0.77513  0.16624
   -40.00  -0.50646  0.59632  0.15608
   -30.00  -0.54572  0.42705  0.16216
   -20.00  -0.60576  0.28819  0.22128
   -10.00  -0.24783  0.16218  0.09781
    -4.17  -0.05540  0.08883  -0.10363
    -3.17  0.03235  0.08875  -0.10517
    -2.12  0.12318  0.08867  -0.10640
    -1.08  0.21478  0.08867  -0.10779
    -0.05  0.30561  0.08875  -0.10856
    -0.04  0.30582  0.08875  -0.10856
     1.17  0.41312  0.08892  -0.10955
     2.33  0.51418  0.08906  -0.11039
     3.50  0.61556  0.08932  -0.11097
     4.67  0.71376  0.08953  -0.11082
     5.84  0.80883  0.08982  -0.11013
     7.00  0.89896  0.09030  -0.10849
     8.17  0.97297  0.09083  -0.10394
    10.78  1.00661  0.10058  -0.08078
    13.40  0.88102  0.16871  -0.07461
    16.01  0.85074  0.21089  -0.08116
    18.63  0.87016  0.25290  -0.09134
    21.24  0.86533  0.30563  -0.10792
    23.86  0.83949  0.34198  -0.12899
    26.47  0.81365  0.37832  -0.15005
    29.08  0.78780  0.41466  -0.17111
    31.70  0.76946  0.45619  -0.18661
    34.31  0.75499  0.50038  -0.19924
    36.93  0.74051  0.54458  -0.21186
    39.54  0.72604  0.58878  -0.22448
    42.16  0.70707  0.63505  -0.23530
    44.77  0.68717  0.68174  -0.24576
    47.39  0.66727  0.72843  -0.25621
    50.00  0.64737  0.77513  -0.26666
    60.00  0.53114  0.94077  -0.30230
    70.00  0.37565  1.07224  -0.33332
    80.00  0.19246  1.15253  -0.35880
    90.00  0.00002  1.17054  -0.37712
   100.00  -0.13468  1.15253  -0.39228
   110.00  -0.26323  1.07224  -0.39513
   120.00  -0.37176  0.94077  -0.38789
   130.00  -0.45335  0.77513  -0.37550
   140.00  -0.50646  0.59632  -0.36526
   150.00  -0.54572  0.42705  -0.37134
   160.00  -0.60730  0.28834  -0.43108
   170.00  -0.30325  0.19759  -0.38489
   180.00  0.00002  0.16596  -0.00002
EOT
