AeroDyn airfoil file.  Compatible with AeroDyn v13.0.
Interpolated thickness: 0.54

  1        Number of airfoil tables in this file
  9990     Reynolds number in millions.  For efficiency, make very large if only one table.
  0        Control setting
  10.7498  Stall angle (deg)
  -3.40473 Zero lift angle of attack (deg)
  4.09628  Cn slope for zero lift (dimensionless)
  1.01196  Cn at stall value for positive angle of attack
  -0.8     Cn at stall value for negative angle of attack
  -2.12    Angle of attack for minimum CD (deg)
  0.144513 Minimum CD value
  -180.00  0.00004  0.20528  -0.00004
  -170.00  0.23851  0.23016  0.24207
  -160.00  0.47759  0.30152  -0.08671
  -150.00  0.42917  0.41059  -0.03817
  -140.00  0.39830  0.54368  -0.00434
  -130.00  0.35654  0.68429  0.02841
  -120.00  0.29238  0.81454  0.06091
  -110.00  0.20704  0.91792  0.09105
  -100.00  0.10596  0.98105  0.11575
   -90.00  0.00004  0.99521  0.13197
   -80.00  -0.10588  0.98105  0.14395
   -70.00  -0.20696  0.91792  0.14613
   -60.00  -0.29230  0.81454  0.14050
   -50.00  -0.35646  0.68429  0.13070
   -40.00  -0.39822  0.54368  0.12271
   -30.00  -0.42909  0.41059  0.12749
   -20.00  -0.47630  0.30140  0.17397
   -10.00  -0.19486  0.20232  0.07689
    -4.17  -0.04354  0.14463  -0.08151
    -3.17  0.02546  0.14457  -0.08272
    -2.12  0.09688  0.14451  -0.08369
    -1.08  0.16891  0.14451  -0.08478
    -0.05  0.24033  0.14457  -0.08538
    -0.03  0.24049  0.14457  -0.08538
     1.16  0.32487  0.14471  -0.08616
     2.32  0.40433  0.14481  -0.08682
     3.49  0.48406  0.14502  -0.08728
     4.65  0.56127  0.14519  -0.08716
     5.81  0.63602  0.14541  -0.08662
     6.97  0.70690  0.14579  -0.08533
     8.13  0.76509  0.14621  -0.08175
    10.75  0.79154  0.15388  -0.06354
    13.37  0.69279  0.20745  -0.05869
    15.98  0.66898  0.24061  -0.06384
    18.60  0.68425  0.27365  -0.07185
    21.22  0.68045  0.31511  -0.08488
    23.83  0.66013  0.34369  -0.10145
    26.45  0.63981  0.37227  -0.11801
    29.07  0.61949  0.40085  -0.13457
    31.68  0.60506  0.43350  -0.14676
    34.30  0.59369  0.46825  -0.15669
    36.92  0.58231  0.50301  -0.16661
    39.53  0.57093  0.53776  -0.17654
    42.15  0.55601  0.57414  -0.18505
    44.77  0.54036  0.61086  -0.19327
    47.38  0.52471  0.64757  -0.20148
    50.00  0.50907  0.68429  -0.20970
    60.00  0.41767  0.81454  -0.23773
    70.00  0.29541  0.91792  -0.26212
    80.00  0.15136  0.98105  -0.28215
    90.00  0.00004  0.99521  -0.29656
   100.00  -0.10588  0.98105  -0.30848
   110.00  -0.20696  0.91792  -0.31072
   120.00  -0.29230  0.81454  -0.30503
   130.00  -0.35646  0.68429  -0.29529
   140.00  -0.39822  0.54368  -0.28724
   150.00  -0.42909  0.41059  -0.29202
   160.00  -0.47751  0.30152  -0.33899
   170.00  -0.23843  0.23016  -0.30267
   180.00  0.00004  0.20528  -0.00004
EOT
