AeroDyn airfoil file.  Compatible with AeroDyn v13.0.
Interpolated thickness: 0.626

  1        Number of airfoil tables in this file
  9990     Reynolds number in millions.  For efficiency, make very large if only one table.
  0        Control setting
  10.7265  Stall angle (deg)
  -3.32198 Zero lift angle of attack (deg)
  3.41016  Cn slope for zero lift (dimensionless)
  0.836145 Cn at stall value for positive angle of attack
  -0.8     Cn at stall value for negative angle of attack
  -2.12    Angle of attack for minimum CD (deg)
  0.18293  Minimum CD value
  -180.00  0.00005  0.23234  -0.00005
  -170.00  0.19394  0.25256  0.19679
  -160.00  0.38832  0.31058  -0.07052
  -150.00  0.34895  0.39926  -0.03105
  -140.00  0.32386  0.50747  -0.00354
  -130.00  0.28990  0.62179  0.02308
  -120.00  0.23774  0.72769  0.04950
  -110.00  0.16835  0.81174  0.07401
  -100.00  0.08617  0.86307  0.09409
   -90.00  0.00005  0.87458  0.10728
   -80.00  -0.08607  0.86307  0.11702
   -70.00  -0.16825  0.81174  0.11879
   -60.00  -0.23764  0.72769  0.11422
   -50.00  -0.28980  0.62179  0.10624
   -40.00  -0.32375  0.50747  0.09975
   -30.00  -0.34885  0.39926  0.10364
   -20.00  -0.38724  0.31048  0.14143
   -10.00  -0.15841  0.22993  0.06250
    -4.17  -0.03538  0.18303  -0.06629
    -3.17  0.02072  0.18298  -0.06727
    -2.12  0.07879  0.18293  -0.06806
    -1.08  0.13735  0.18293  -0.06895
    -0.05  0.19542  0.18298  -0.06944
    -0.02  0.19555  0.18298  -0.06944
     1.16  0.26415  0.18309  -0.07007
     2.32  0.32876  0.18317  -0.07061
     3.47  0.39358  0.18334  -0.07098
     4.63  0.45636  0.18348  -0.07089
     5.79  0.51713  0.18366  -0.07045
     6.95  0.57476  0.18397  -0.06939
     8.11  0.62207  0.18431  -0.06649
    10.73  0.64358  0.19054  -0.05168
    13.34  0.56328  0.23410  -0.04774
    15.96  0.54393  0.26106  -0.05192
    18.58  0.55634  0.28792  -0.05843
    21.20  0.55326  0.32164  -0.06903
    23.82  0.53674  0.34487  -0.08250
    26.44  0.52021  0.36811  -0.09597
    29.05  0.50369  0.39134  -0.10943
    31.67  0.49196  0.41789  -0.11934
    34.29  0.48271  0.44614  -0.12741
    36.91  0.47346  0.47440  -0.13548
    39.53  0.46421  0.50266  -0.14355
    42.15  0.45208  0.53224  -0.15047
    44.76  0.43935  0.56209  -0.15715
    47.38  0.42663  0.59194  -0.16383
    50.00  0.41391  0.62179  -0.17052
    60.00  0.33960  0.72769  -0.19330
    70.00  0.24020  0.81174  -0.21313
    80.00  0.12308  0.86307  -0.22942
    90.00  0.00005  0.87458  -0.24113
   100.00  -0.08607  0.86307  -0.25083
   110.00  -0.16825  0.81174  -0.25265
   120.00  -0.23764  0.72769  -0.24802
   130.00  -0.28980  0.62179  -0.24010
   140.00  -0.32375  0.50747  -0.23355
   150.00  -0.34885  0.39926  -0.23744
   160.00  -0.38822  0.31058  -0.27563
   170.00  -0.19384  0.25256  -0.24610
   180.00  0.00005  0.23234  -0.00005
EOT
