AeroDyn airfoil file.  Compatible with AeroDyn v13.0.
Interpolated thickness: 0.284

  1        Number of airfoil tables in this file
  9990     Reynolds number in millions.  For efficiency, make very large if only one table.
  0        Control setting
  10.8193  Stall angle (deg)
  -3.56855 Zero lift angle of attack (deg)
  6.10102  Cn slope for zero lift (dimensionless)
  1.53206  Cn at stall value for positive angle of attack
  -0.8     Cn at stall value for negative angle of attack
  -2.12    Angle of attack for minimum CD (deg)
  0.0301553 Minimum CD value
  -180.00  0.00001  0.12474  -0.00001
  -170.00  0.37120  0.16346  0.37684
  -160.00  0.74333  0.27454  -0.13492
  -150.00  0.66796  0.44430  -0.05936
  -140.00  0.61991  0.65147  -0.00669
  -130.00  0.55491  0.87032  0.04427
  -120.00  0.45504  1.07307  0.09486
  -110.00  0.32221  1.23398  0.14178
  -100.00  0.16487  1.33224  0.18022
   -90.00  0.00001  1.35428  0.20547
   -80.00  -0.16486  1.33224  0.22412
   -70.00  -0.32219  1.23398  0.22751
   -60.00  -0.45503  1.07307  0.21875
   -50.00  -0.55489  0.87032  0.20349
   -40.00  -0.61990  0.65147  0.19105
   -30.00  -0.66795  0.44430  0.19850
   -20.00  -0.74143  0.27435  0.27085
   -10.00  -0.30335  0.12013  0.11974
    -4.17  -0.06783  0.03034  -0.12681
    -3.17  0.03957  0.03025  -0.12870
    -2.12  0.15074  0.03016  -0.13020
    -1.08  0.26285  0.03016  -0.13190
    -0.05  0.37402  0.03025  -0.13284
    -0.04  0.37428  0.03025  -0.13285
     1.17  0.50561  0.03046  -0.13405
     2.34  0.62930  0.03062  -0.13509
     3.52  0.75339  0.03094  -0.13580
     4.69  0.87357  0.03121  -0.13562
     5.86  0.98993  0.03156  -0.13477
     7.03  1.10024  0.03215  -0.13276
     8.21  1.19083  0.03279  -0.12719
    10.82  1.23199  0.04473  -0.09885
    13.43  1.07828  0.12811  -0.09130
    16.04  1.04123  0.17974  -0.09931
    18.66  1.06499  0.23115  -0.11177
    21.27  1.05909  0.29570  -0.13207
    23.88  1.02746  0.34018  -0.15785
    26.49  0.99583  0.38466  -0.18363
    29.10  0.96420  0.42914  -0.20941
    31.72  0.94174  0.47996  -0.22838
    34.33  0.92403  0.53406  -0.24383
    36.94  0.90632  0.58816  -0.25928
    39.55  0.88860  0.64225  -0.27473
    42.16  0.86538  0.69888  -0.28797
    44.78  0.84103  0.75603  -0.30077
    47.39  0.81667  0.81318  -0.31356
    50.00  0.79232  0.87032  -0.32635
    60.00  0.65006  1.07307  -0.36997
    70.00  0.45975  1.23398  -0.40794
    80.00  0.23553  1.33224  -0.43912
    90.00  0.00001  1.35428  -0.46154
   100.00  -0.16486  1.33224  -0.48010
   110.00  -0.32219  1.23398  -0.48359
   120.00  -0.45503  1.07307  -0.47473
   130.00  -0.55489  0.87032  -0.45956
   140.00  -0.61990  0.65147  -0.44703
   150.00  -0.66795  0.44430  -0.45448
   160.00  -0.74332  0.27454  -0.52758
   170.00  -0.37118  0.16346  -0.47106
   180.00  0.00001  0.12474  -0.00001
EOT
