AeroDyn airfoil file.  Compatible with AeroDyn v13.0.
Interpolated thickness: 0.764

  1        Number of airfoil tables in this file
  9990     Reynolds number in millions.  For efficiency, make very large if only one table.
  0        Control setting
  10.689   Stall angle (deg)
  -3.10964 Zero lift angle of attack (deg)
  2.29559  Cn slope for zero lift (dimensionless)
  0.552852 Cn at stall value for positive angle of attack
  -0.8     Cn at stall value for negative angle of attack
  -2.12    Angle of attack for minimum CD (deg)
  0.244576 Minimum CD value
  -180.00  0.00007  0.27575  -0.00007
  -170.00  0.12242  0.28852  0.12414
  -160.00  0.24507  0.32513  -0.04454
  -150.00  0.22023  0.38108  -0.01963
  -140.00  0.20440  0.44937  -0.00227
  -130.00  0.18297  0.52150  0.01453
  -120.00  0.15005  0.58833  0.03120
  -110.00  0.10627  0.64137  0.04667
  -100.00  0.05441  0.67375  0.05933
   -90.00  0.00007  0.68102  0.06766
   -80.00  -0.05427  0.67375  0.07381
   -70.00  -0.10613  0.64137  0.07492
   -60.00  -0.14992  0.58833  0.07204
   -50.00  -0.18283  0.52150  0.06700
   -40.00  -0.20426  0.44937  0.06291
   -30.00  -0.22009  0.38108  0.06536
   -20.00  -0.24432  0.32506  0.08921
   -10.00  -0.09992  0.27423  0.03940
    -4.17  -0.02229  0.24464  -0.04187
    -3.17  0.01311  0.24461  -0.04249
    -2.12  0.04975  0.24458  -0.04298
    -1.08  0.08671  0.24458  -0.04354
    -0.05  0.12335  0.24461  -0.04385
    -0.01  0.12343  0.24461  -0.04385
     1.15  0.16672  0.24468  -0.04425
     2.31  0.20749  0.24473  -0.04459
     3.46  0.24839  0.24484  -0.04483
     4.61  0.28800  0.24492  -0.04477
     5.76  0.32636  0.24504  -0.04449
     6.92  0.36272  0.24523  -0.04382
     8.07  0.39257  0.24545  -0.04199
    10.69  0.40614  0.24938  -0.03265
    13.31  0.35548  0.27686  -0.03016
    15.93  0.34327  0.29388  -0.03280
    18.55  0.35110  0.31083  -0.03691
    21.17  0.34915  0.33210  -0.04360
    23.79  0.33873  0.34676  -0.05210
    26.41  0.32830  0.36142  -0.06059
    29.03  0.31787  0.37609  -0.06909
    31.65  0.31047  0.39284  -0.07534
    34.28  0.30464  0.41067  -0.08044
    36.90  0.29880  0.42850  -0.08553
    39.52  0.29296  0.44633  -0.09062
    42.14  0.28530  0.46499  -0.09499
    44.76  0.27728  0.48383  -0.09920
    47.38  0.26925  0.50267  -0.10342
    50.00  0.26122  0.52150  -0.10764
    60.00  0.21433  0.58833  -0.12201
    70.00  0.15161  0.64137  -0.13453
    80.00  0.07770  0.67375  -0.14481
    90.00  0.00007  0.68102  -0.15220
   100.00  -0.05427  0.67375  -0.15831
   110.00  -0.10613  0.64137  -0.15946
   120.00  -0.14992  0.58833  -0.15654
   130.00  -0.18283  0.52150  -0.15154
   140.00  -0.20426  0.44937  -0.14741
   150.00  -0.22009  0.38108  -0.14987
   160.00  -0.24494  0.32513  -0.17396
   170.00  -0.12228  0.28852  -0.15533
   180.00  0.00007  0.27575  -0.00007
EOT
