AeroDyn airfoil file.  Compatible with AeroDyn v13.0.
Interpolated thickness: 0.921

  1        Number of airfoil tables in this file
  9990     Reynolds number in millions.  For efficiency, make very large if only one table.
  0        Control setting
  10.6464  Stall angle (deg)
  -2.43537 Zero lift angle of attack (deg)
  0.994436 Cn slope for zero lift (dimensionless)
  0.22705  Cn at stall value for positive angle of attack
  -0.8     Cn at stall value for negative angle of attack
  -2.12    Angle of attack for minimum CD (deg)
  0.31471  Minimum CD value
  -180.00  0.00009  0.32515  -0.00009
  -170.00  0.04104  0.32942  0.04149
  -160.00  0.08210  0.34167  -0.01497
  -150.00  0.07379  0.36041  -0.00664
  -140.00  0.06849  0.38326  -0.00083
  -130.00  0.06131  0.40741  0.00480
  -120.00  0.05030  0.42978  0.01038
  -110.00  0.03564  0.44753  0.01555
  -100.00  0.01828  0.45838  0.01980
   -90.00  0.00009  0.46081  0.02258
   -80.00  -0.01810  0.45838  0.02464
   -70.00  -0.03546  0.44753  0.02501
   -60.00  -0.05012  0.42978  0.02405
   -50.00  -0.06114  0.40741  0.02236
   -40.00  -0.06831  0.38326  0.02099
   -30.00  -0.07361  0.36041  0.02181
   -20.00  -0.08172  0.34165  0.02980
   -10.00  -0.03338  0.32464  0.01312
    -4.17  -0.00739  0.31473  -0.01408
    -3.17  0.00446  0.31472  -0.01429
    -2.12  0.01672  0.31471  -0.01446
    -1.08  0.02909  0.31471  -0.01464
    -0.05  0.04136  0.31472  -0.01475
    -0.00  0.04139  0.31472  -0.01475
     1.15  0.05588  0.31474  -0.01488
     2.29  0.06952  0.31476  -0.01499
     3.44  0.08321  0.31480  -0.01507
     4.58  0.09647  0.31483  -0.01505
     5.73  0.10931  0.31486  -0.01496
     6.88  0.12148  0.31493  -0.01474
     8.02  0.13148  0.31500  -0.01412
    10.65  0.13602  0.31632  -0.01100
    13.27  0.11906  0.32552  -0.01016
    15.89  0.11497  0.33121  -0.01105
    18.52  0.11760  0.33689  -0.01242
    21.14  0.11694  0.34401  -0.01466
    23.76  0.11345  0.34892  -0.01751
    26.39  0.10996  0.35382  -0.02035
    29.01  0.10647  0.35873  -0.02319
    31.64  0.10400  0.36434  -0.02529
    34.26  0.10204  0.37031  -0.02699
    36.88  0.10009  0.37628  -0.02870
    39.51  0.09813  0.38225  -0.03040
    42.13  0.09557  0.38849  -0.03186
    44.75  0.09288  0.39480  -0.03327
    47.38  0.09020  0.40110  -0.03469
    50.00  0.08751  0.40741  -0.03610
    60.00  0.07181  0.42978  -0.04091
    70.00  0.05082  0.44753  -0.04510
    80.00  0.02608  0.45838  -0.04854
    90.00  0.00009  0.46081  -0.05101
   100.00  -0.01810  0.45838  -0.05306
   110.00  -0.03546  0.44753  -0.05345
   120.00  -0.05012  0.42978  -0.05247
   130.00  -0.06114  0.40741  -0.05080
   140.00  -0.06831  0.38326  -0.04941
   150.00  -0.07361  0.36041  -0.05023
   160.00  -0.08192  0.34167  -0.05830
   170.00  -0.04087  0.32942  -0.05206
   180.00  0.00009  0.32515  -0.00009
EOT
