AeroDyn airfoil file.  Compatible with AeroDyn v13.0.
Interpolated thickness: 0.969

  1        Number of airfoil tables in this file
  9990     Reynolds number in millions.  For efficiency, make very large if only one table.
  0        Control setting
  10.6334  Stall angle (deg)
  -1.58173 Zero lift angle of attack (deg)
  0.603162 Cn slope for zero lift (dimensionless)
  0.128591 Cn at stall value for positive angle of attack
  -0.8     Cn at stall value for negative angle of attack
  -2.12    Angle of attack for minimum CD (deg)
  0.336152 Minimum CD value
  -180.00  0.00010  0.34025  -0.00010
  -170.00  0.01617  0.34192  0.01622
  -160.00  0.03228  0.34673  -0.00594
  -150.00  0.02902  0.35408  -0.00267
  -140.00  0.02694  0.36305  -0.00039
  -130.00  0.02412  0.37253  0.00182
  -120.00  0.01980  0.38131  0.00401
  -110.00  0.01405  0.38827  0.00604
  -100.00  0.00723  0.39253  0.00771
   -90.00  0.00010  0.39348  0.00880
   -80.00  -0.00704  0.39253  0.00961
   -70.00  -0.01385  0.38827  0.00975
   -60.00  -0.01961  0.38131  0.00938
   -50.00  -0.02393  0.37253  0.00871
   -40.00  -0.02674  0.36305  0.00818
   -30.00  -0.02882  0.35408  0.00850
   -20.00  -0.03201  0.34672  0.01163
   -10.00  -0.01304  0.34005  0.00509
    -4.17  -0.00284  0.33616  -0.00559
    -3.17  0.00181  0.33616  -0.00567
    -2.12  0.00662  0.33615  -0.00573
    -1.08  0.01148  0.33615  -0.00581
    -0.05  0.01629  0.33616  -0.00585
    -0.00  0.01630  0.33616  -0.00585
     1.14  0.02199  0.33616  -0.00590
     2.29  0.02734  0.33617  -0.00594
     3.43  0.03271  0.33619  -0.00598
     4.58  0.03792  0.33620  -0.00597
     5.72  0.04296  0.33621  -0.00593
     6.86  0.04773  0.33624  -0.00584
     8.01  0.05165  0.33627  -0.00560
    10.63  0.05344  0.33678  -0.00438
    13.26  0.04678  0.34039  -0.00405
    15.88  0.04518  0.34263  -0.00440
    18.51  0.04621  0.34485  -0.00494
    21.13  0.04595  0.34765  -0.00581
    23.76  0.04458  0.34957  -0.00693
    26.38  0.04321  0.35150  -0.00805
    29.00  0.04184  0.35343  -0.00916
    31.63  0.04087  0.35563  -0.00998
    34.25  0.04010  0.35797  -0.01065
    36.88  0.03934  0.36031  -0.01132
    39.50  0.03857  0.36265  -0.01199
    42.13  0.03756  0.36511  -0.01256
    44.75  0.03651  0.36758  -0.01312
    47.38  0.03545  0.37005  -0.01367
    50.00  0.03440  0.37253  -0.01423
    60.00  0.02824  0.38131  -0.01611
    70.00  0.02000  0.38827  -0.01776
    80.00  0.01029  0.39253  -0.01911
    90.00  0.00010  0.39348  -0.02008
   100.00  -0.00704  0.39253  -0.02088
   110.00  -0.01385  0.38827  -0.02103
   120.00  -0.01961  0.38131  -0.02065
   130.00  -0.02393  0.37253  -0.01999
   140.00  -0.02674  0.36305  -0.01945
   150.00  -0.02882  0.35408  -0.01977
   160.00  -0.03209  0.34673  -0.02294
   170.00  -0.01598  0.34192  -0.02049
   180.00  0.00010  0.34025  -0.00010
EOT
