AeroDyn airfoil file.  Compatible with AeroDyn v13.0.
Interpolated thickness: 0.897

  1        Number of airfoil tables in this file
  9990     Reynolds number in millions.  For efficiency, make very large if only one table.
  0        Control setting
  10.653   Stall angle (deg)
  -2.6529  Zero lift angle of attack (deg)
  1.18953  Cn slope for zero lift (dimensionless)
  0.276246 Cn at stall value for positive angle of attack
  -0.8     Cn at stall value for negative angle of attack
  -2.12    Angle of attack for minimum CD (deg)
  0.303989 Minimum CD value
  -180.00  0.00009  0.31760  -0.00009
  -170.00  0.05348  0.32317  0.05412
  -160.00  0.10702  0.33914  -0.01949
  -150.00  0.09617  0.36357  -0.00862
  -140.00  0.08926  0.39337  -0.00105
  -130.00  0.07991  0.42485  0.00628
  -120.00  0.06555  0.45402  0.01356
  -110.00  0.04644  0.47716  0.02031
  -100.00  0.02380  0.49130  0.02584
   -90.00  0.00009  0.49447  0.02947
   -80.00  -0.02363  0.49130  0.03216
   -70.00  -0.04626  0.47716  0.03264
   -60.00  -0.06537  0.45402  0.03138
   -50.00  -0.07974  0.42485  0.02919
   -40.00  -0.08909  0.39337  0.02740
   -30.00  -0.09600  0.36357  0.02847
   -20.00  -0.10657  0.33912  0.03888
   -10.00  -0.04355  0.31693  0.01714
    -4.17  -0.00967  0.30402  -0.01833
    -3.17  0.00578  0.30400  -0.01860
    -2.12  0.02177  0.30399  -0.01882
    -1.08  0.03790  0.30399  -0.01906
    -0.05  0.05389  0.30400  -0.01920
    -0.01  0.05393  0.30400  -0.01920
     1.15  0.07282  0.30403  -0.01937
     2.29  0.09061  0.30406  -0.01952
     3.44  0.10846  0.30410  -0.01962
     4.59  0.12575  0.30414  -0.01959
     5.74  0.14249  0.30419  -0.01947
     6.88  0.15836  0.30428  -0.01918
     8.03  0.17139  0.30437  -0.01838
    10.65  0.17731  0.30609  -0.01431
    13.28  0.15520  0.31808  -0.01322
    15.90  0.14987  0.32551  -0.01437
    18.52  0.15329  0.33290  -0.01616
    21.15  0.15244  0.34219  -0.01908
    23.77  0.14789  0.34859  -0.02279
    26.39  0.14334  0.35499  -0.02650
    29.01  0.13879  0.36139  -0.03021
    31.64  0.13556  0.36870  -0.03294
    34.26  0.13301  0.37648  -0.03516
    36.88  0.13046  0.38426  -0.03738
    39.51  0.12792  0.39204  -0.03961
    42.13  0.12457  0.40019  -0.04151
    44.75  0.12107  0.40841  -0.04335
    47.38  0.11757  0.41663  -0.04519
    50.00  0.11406  0.42485  -0.04703
    60.00  0.09360  0.45402  -0.05331
    70.00  0.06622  0.47716  -0.05877
    80.00  0.03397  0.49130  -0.06326
    90.00  0.00009  0.49447  -0.06648
   100.00  -0.02363  0.49130  -0.06915
   110.00  -0.04626  0.47716  -0.06965
   120.00  -0.06537  0.45402  -0.06838
   130.00  -0.07974  0.42485  -0.06620
   140.00  -0.08909  0.39337  -0.06439
   150.00  -0.09600  0.36357  -0.06546
   160.00  -0.10684  0.33914  -0.07598
   170.00  -0.05331  0.32317  -0.06785
   180.00  0.00009  0.31760  -0.00009
EOT
