AeroDyn airfoil file.  Compatible with AeroDyn v13.0.
Interpolated thickness: 0.577

  1        Number of airfoil tables in this file
  9990     Reynolds number in millions.  For efficiency, make very large if only one table.
  0        Control setting
  10.7398  Stall angle (deg)
  -3.37192 Zero lift angle of attack (deg)
  3.80188  Cn slope for zero lift (dimensionless)
  0.936387 Cn at stall value for positive angle of attack
  -0.8     Cn at stall value for negative angle of attack
  -2.12    Angle of attack for minimum CD (deg)
  0.161041 Minimum CD value
  -180.00  0.00004  0.21692  -0.00004
  -170.00  0.21934  0.23980  0.22259
  -160.00  0.43919  0.30542  -0.07975
  -150.00  0.39466  0.40571  -0.03511
  -140.00  0.36627  0.52811  -0.00400
  -130.00  0.32787  0.65740  0.02611
  -120.00  0.26887  0.77717  0.05600
  -110.00  0.19039  0.87224  0.08372
  -100.00  0.09745  0.93029  0.10643
   -90.00  0.00004  0.94331  0.12135
   -80.00  -0.09736  0.93029  0.13237
   -70.00  -0.19031  0.87224  0.13437
   -60.00  -0.26878  0.77717  0.12919
   -50.00  -0.32778  0.65740  0.12018
   -40.00  -0.36618  0.52811  0.11283
   -30.00  -0.39457  0.40571  0.11723
   -20.00  -0.43798  0.30531  0.15997
   -10.00  -0.17917  0.21419  0.07070
    -4.17  -0.04003  0.16115  -0.07496
    -3.17  0.02342  0.16110  -0.07607
    -2.12  0.08910  0.16104  -0.07696
    -1.08  0.15533  0.16104  -0.07797
    -0.05  0.22101  0.16110  -0.07852
    -0.03  0.22116  0.16110  -0.07852
     1.16  0.29874  0.16122  -0.07924
     2.32  0.37182  0.16132  -0.07985
     3.48  0.44513  0.16151  -0.08027
     4.64  0.51613  0.16166  -0.08016
     5.80  0.58487  0.16187  -0.07966
     6.96  0.65005  0.16222  -0.07847
     8.12  0.70356  0.16260  -0.07518
    10.74  0.72788  0.16965  -0.05844
    13.36  0.63707  0.21891  -0.05398
    15.97  0.61518  0.24941  -0.05871
    18.59  0.62922  0.27979  -0.06607
    21.21  0.62573  0.31792  -0.07806
    23.83  0.60704  0.34420  -0.09330
    26.44  0.58836  0.37048  -0.10853
    29.06  0.56967  0.39676  -0.12376
    31.68  0.55640  0.42678  -0.13496
    34.30  0.54594  0.45874  -0.14409
    36.91  0.53548  0.49070  -0.15322
    39.53  0.52501  0.52266  -0.16235
    42.15  0.51129  0.55611  -0.17017
    44.77  0.49690  0.58988  -0.17773
    47.38  0.48252  0.62364  -0.18529
    50.00  0.46813  0.65740  -0.19284
    60.00  0.38408  0.77717  -0.21861
    70.00  0.27165  0.87224  -0.24104
    80.00  0.13919  0.93029  -0.25947
    90.00  0.00004  0.94331  -0.27271
   100.00  -0.09736  0.93029  -0.28368
   110.00  -0.19031  0.87224  -0.28574
   120.00  -0.26878  0.77717  -0.28050
   130.00  -0.32778  0.65740  -0.27154
   140.00  -0.36618  0.52811  -0.26414
   150.00  -0.39457  0.40571  -0.26854
   160.00  -0.43910  0.30542  -0.31173
   170.00  -0.21925  0.23980  -0.27833
   180.00  0.00004  0.21692  -0.00004
EOT
