AeroDyn airfoil file.  Compatible with AeroDyn v13.0.
Interpolated thickness: 0.468

  1        Number of airfoil tables in this file
  9990     Reynolds number in millions.  For efficiency, make very large if only one table.
  0        Control setting
  10.7694  Stall angle (deg)
  -3.45984 Zero lift angle of attack (deg)
  4.66576  Cn slope for zero lift (dimensionless)
  1.15873  Cn at stall value for positive angle of attack
  -0.8     Cn at stall value for negative angle of attack
  -2.12    Angle of attack for minimum CD (deg)
  0.11235  Minimum CD value
  -180.00  0.00003  0.18263  -0.00003
  -170.00  0.27583  0.21140  0.27997
  -160.00  0.55233  0.29393  -0.10027
  -150.00  0.49633  0.42007  -0.04413
  -140.00  0.46063  0.57400  -0.00500
  -130.00  0.41233  0.73661  0.03287
  -120.00  0.33813  0.88725  0.07046
  -110.00  0.23943  1.00681  0.10532
  -100.00  0.12253  1.07982  0.13388
   -90.00  0.00003  1.09620  0.15264
   -80.00  -0.12247  1.07982  0.16650
   -70.00  -0.23937  1.00681  0.16902
   -60.00  -0.33807  0.88725  0.16251
   -50.00  -0.41227  0.73661  0.15117
   -40.00  -0.46057  0.57400  0.14193
   -30.00  -0.49627  0.42007  0.14746
   -20.00  -0.55087  0.29379  0.20122
   -10.00  -0.22537  0.17920  0.08894
    -4.17  -0.05037  0.11249  -0.09425
    -3.17  0.02943  0.11242  -0.09565
    -2.12  0.11203  0.11235  -0.09677
    -1.08  0.19533  0.11235  -0.09803
    -0.05  0.27793  0.11242  -0.09873
    -0.03  0.27812  0.11242  -0.09873
     1.16  0.37570  0.11257  -0.09963
     2.33  0.46760  0.11270  -0.10040
     3.49  0.55980  0.11293  -0.10092
     4.66  0.64911  0.11313  -0.10079
     5.82  0.73556  0.11339  -0.10016
     6.99  0.81753  0.11383  -0.09867
     8.15  0.88483  0.11431  -0.09453
    10.77  0.91542  0.12318  -0.07347
    13.38  0.80121  0.18514  -0.06786
    16.00  0.77368  0.22349  -0.07382
    18.62  0.79133  0.26170  -0.08308
    21.23  0.78694  0.30965  -0.09816
    23.85  0.76344  0.34270  -0.11731
    26.46  0.73994  0.37575  -0.13647
    29.08  0.71644  0.40881  -0.15562
    31.69  0.69975  0.44657  -0.16972
    34.31  0.68659  0.48676  -0.18120
    36.92  0.67343  0.52696  -0.19267
    39.54  0.66027  0.56715  -0.20415
    42.15  0.64302  0.60923  -0.21400
    44.77  0.62492  0.65169  -0.22350
    47.38  0.60683  0.69415  -0.23301
    50.00  0.58873  0.73661  -0.24251
    60.00  0.48303  0.88725  -0.27492
    70.00  0.34163  1.00681  -0.30313
    80.00  0.17503  1.07982  -0.32630
    90.00  0.00003  1.09620  -0.34296
   100.00  -0.12247  1.07982  -0.35675
   110.00  -0.23937  1.00681  -0.35934
   120.00  -0.33807  0.88725  -0.35276
   130.00  -0.41227  0.73661  -0.34149
   140.00  -0.46057  0.57400  -0.33218
   150.00  -0.49627  0.42007  -0.33771
   160.00  -0.55227  0.29393  -0.39203
   170.00  -0.27577  0.21140  -0.35003
   180.00  0.00003  0.18263  -0.00003
EOT
