AeroDyn airfoil file.  Compatible with AeroDyn v13.0.
Interpolated thickness: 0.429

  1        Number of airfoil tables in this file
  9990     Reynolds number in millions.  For efficiency, make very large if only one table.
  0        Control setting
  10.78    Stall angle (deg)
  -3.48604 Zero lift angle of attack (deg)
  4.97238  Cn slope for zero lift (dimensionless)
  1.23807  Cn at stall value for positive angle of attack
  -0.8     Cn at stall value for negative angle of attack
  -2.12    Angle of attack for minimum CD (deg)
  0.0949283 Minimum CD value
  -180.00  0.00002  0.17036  -0.00002
  -170.00  0.29604  0.20124  0.30050
  -160.00  0.59281  0.28982  -0.10761
  -150.00  0.53271  0.42521  -0.04736
  -140.00  0.49439  0.59042  -0.00536
  -130.00  0.44255  0.76495  0.03529
  -120.00  0.36291  0.92663  0.07563
  -110.00  0.25697  1.05496  0.11305
  -100.00  0.13151  1.13332  0.14370
   -90.00  0.00002  1.15090  0.16384
   -80.00  -0.13146  1.13332  0.17871
   -70.00  -0.25693  1.05496  0.18142
   -60.00  -0.36286  0.92663  0.17443
   -50.00  -0.44250  0.76495  0.16226
   -40.00  -0.49434  0.59042  0.15234
   -30.00  -0.53266  0.42521  0.15828
   -20.00  -0.59126  0.28967  0.21598
   -10.00  -0.24190  0.16668  0.09547
    -4.17  -0.05407  0.09508  -0.10115
    -3.17  0.03158  0.09500  -0.10265
    -2.12  0.12024  0.09493  -0.10386
    -1.08  0.20964  0.09493  -0.10521
    -0.05  0.29830  0.09500  -0.10596
    -0.04  0.29850  0.09500  -0.10596
     1.17  0.40323  0.09517  -0.10693
     2.33  0.50188  0.09530  -0.10775
     3.50  0.60084  0.09556  -0.10832
     4.67  0.69668  0.09577  -0.10817
     5.83  0.78947  0.09605  -0.10750
     7.00  0.87745  0.09652  -0.10589
     8.17  0.94969  0.09703  -0.10145
    10.78  0.98252  0.10655  -0.07885
    13.39  0.85993  0.17305  -0.07283
    16.01  0.83039  0.21422  -0.07922
    18.62  0.84934  0.25522  -0.08916
    21.24  0.84463  0.30669  -0.10534
    23.85  0.81940  0.34217  -0.12590
    26.47  0.79418  0.37764  -0.14646
    29.08  0.76895  0.41312  -0.16702
    31.70  0.75105  0.45364  -0.18215
    34.31  0.73692  0.49679  -0.19447
    36.93  0.72279  0.53993  -0.20679
    39.54  0.70867  0.58307  -0.21911
    42.16  0.69015  0.62823  -0.22968
    44.77  0.67073  0.67380  -0.23988
    47.39  0.65130  0.71938  -0.25008
    50.00  0.63188  0.76495  -0.26028
    60.00  0.51843  0.92663  -0.29507
    70.00  0.36667  1.05496  -0.32534
    80.00  0.18785  1.13332  -0.35021
    90.00  0.00002  1.15090  -0.36809
   100.00  -0.13146  1.13332  -0.38290
   110.00  -0.25693  1.05496  -0.38568
   120.00  -0.36286  0.92663  -0.37861
   130.00  -0.44250  0.76495  -0.36652
   140.00  -0.49434  0.59042  -0.35652
   150.00  -0.53266  0.42521  -0.36246
   160.00  -0.59276  0.28982  -0.42076
   170.00  -0.29599  0.20124  -0.37568
   180.00  0.00002  0.17036  -0.00002
EOT
