AeroDyn airfoil file.  Compatible with AeroDyn v13.0.
Interpolated thickness: 0.22

  1        Number of airfoil tables in this file
  9990     Reynolds number in millions.  For efficiency, make very large if only one table.
  0        Control setting
  9.17443  Stall angle (deg)
  -4.08133 Zero lift angle of attack (deg)
  6.41096  Cn slope for zero lift (dimensionless)
  1.48322  Cn at stall value for positive angle of attack
  -0.8     Cn at stall value for negative angle of attack
  -2.02    Angle of attack for minimum CD (deg)
  0.00944286 Minimum CD value
  -180.00  0.00000  0.13379  0.00000
  -170.00  0.39600  0.17451  0.40000
  -160.00  0.79300  0.29139  -0.14160
  -150.00  0.70957  0.46990  -0.06269
  -140.00  0.65857  0.68751  -0.00704
  -130.00  0.58929  0.91699  0.04680
  -120.00  0.48329  1.12893  0.09996
  -110.00  0.34200  1.29613  0.14879
  -100.00  0.17500  1.39657  0.18830
   -90.00  0.00000  1.41600  0.21353
   -80.00  -0.17500  1.39657  0.23370
   -70.00  -0.34200  1.29613  0.23773
   -60.00  -0.48329  1.12893  0.22877
   -50.00  -0.58929  0.91699  0.21274
   -40.00  -0.65857  0.68751  0.19937
   -30.00  -0.70957  0.46990  0.20650
   -20.00  -0.79129  0.29116  0.28239
   -10.00  -0.30543  0.10563  0.10556
    -6.04  -0.12956  0.03225  -0.07784
    -5.04  -0.06351  0.01974  -0.11290
    -4.09  -0.00006  0.00952  -0.14160
    -3.02  0.11976  0.00948  -0.14342
    -2.02  0.23046  0.00944  -0.14470
    -1.03  0.34138  0.00947  -0.14601
    -0.03  0.45262  0.00960  -0.14697
     1.17  0.58855  0.00983  -0.14787
     2.34  0.71858  0.01010  -0.14880
     3.51  0.84795  0.01048  -0.14943
     4.68  0.97123  0.01081  -0.14862
     5.85  1.09027  0.01137  -0.14700
     7.03  1.19229  0.01201  -0.14234
     9.17  1.27440  0.01920  -0.12199
    11.32  1.22358  0.05889  -0.10736
    13.47  1.23087  0.10431  -0.10766
    15.62  1.22600  0.14892  -0.10988
    17.77  1.19117  0.21638  -0.12232
    19.92  1.16455  0.28025  -0.13611
    22.07  1.11622  0.32826  -0.16129
    24.22  1.08834  0.36669  -0.18332
    26.36  1.06047  0.40512  -0.20534
    28.51  1.03259  0.44355  -0.22737
    30.66  1.00956  0.48533  -0.24580
    32.81  0.99286  0.53133  -0.25984
    34.96  0.97733  0.57805  -0.27315
    37.11  0.96179  0.62478  -0.28647
    39.26  0.94625  0.67150  -0.29979
    41.41  0.92690  0.71993  -0.31160
    43.55  0.90550  0.76919  -0.32265
    45.70  0.88409  0.81846  -0.33369
    47.85  0.86269  0.86772  -0.34473
    50.00  0.84129  0.91699  -0.35577
    60.00  0.69029  1.12893  -0.40127
    70.00  0.48829  1.29613  -0.44051
    80.00  0.25000  1.39657  -0.47224
    90.00  0.00000  1.41600  -0.49447
   100.00  -0.17500  1.39657  -0.51457
   110.00  -0.34200  1.29613  -0.51867
   120.00  -0.48329  1.12893  -0.50964
   130.00  -0.58929  0.91699  -0.49369
   140.00  -0.65857  0.68751  -0.48024
   150.00  -0.70957  0.46990  -0.48737
   160.00  -0.79300  0.29139  -0.56391
   170.00  -0.39600  0.17451  -0.50000
   180.00  0.00000  0.13379  0.00000
EOT
