AeroDyn airfoil file.  Compatible with AeroDyn v13.0.
Interpolated thickness: 0.619

  1        Number of airfoil tables in this file
  9990     Reynolds number in millions.  For efficiency, make very large if only one table.
  0        Control setting
  10.7284  Stall angle (deg)
  -3.32965 Zero lift angle of attack (deg)
  3.46625  Cn slope for zero lift (dimensionless)
  0.850476 Cn at stall value for positive angle of attack
  -0.8     Cn at stall value for negative angle of attack
  -2.12    Angle of attack for minimum CD (deg)
  0.179803 Minimum CD value
  -180.00  0.00005  0.23014  -0.00005
  -170.00  0.19757  0.25074  0.20048
  -160.00  0.39559  0.30984  -0.07184
  -150.00  0.35548  0.40018  -0.03163
  -140.00  0.32992  0.51042  -0.00361
  -130.00  0.29532  0.62688  0.02351
  -120.00  0.24219  0.73476  0.05043
  -110.00  0.17150  0.82038  0.07540
  -100.00  0.08778  0.87267  0.09585
   -90.00  0.00005  0.88440  0.10929
   -80.00  -0.08768  0.87267  0.11921
   -70.00  -0.17140  0.82038  0.12102
   -60.00  -0.24209  0.73476  0.11636
   -50.00  -0.29523  0.62688  0.10823
   -40.00  -0.32982  0.51042  0.10162
   -30.00  -0.35538  0.40018  0.10558
   -20.00  -0.39449  0.30974  0.14408
   -10.00  -0.16137  0.22768  0.06367
    -4.17  -0.03604  0.17990  -0.06753
    -3.17  0.02111  0.17985  -0.06853
    -2.12  0.08026  0.17980  -0.06933
    -1.08  0.13992  0.17980  -0.07023
    -0.05  0.19907  0.17985  -0.07074
    -0.02  0.19921  0.17985  -0.07074
     1.16  0.26909  0.17996  -0.07138
     2.32  0.33491  0.18005  -0.07193
     3.48  0.40094  0.18022  -0.07231
     4.63  0.46490  0.18036  -0.07221
     5.79  0.52681  0.18055  -0.07176
     6.95  0.58551  0.18086  -0.07069
     8.11  0.63371  0.18121  -0.06773
    10.73  0.65562  0.18756  -0.05265
    13.35  0.57382  0.23193  -0.04863
    15.96  0.55411  0.25940  -0.05289
    18.58  0.56675  0.28676  -0.05952
    21.20  0.56361  0.32110  -0.07032
    23.82  0.54678  0.34477  -0.08404
    26.44  0.52995  0.36844  -0.09776
    29.06  0.51312  0.39211  -0.11148
    31.67  0.50117  0.41916  -0.12157
    34.29  0.49174  0.44794  -0.12979
    36.91  0.48232  0.47673  -0.13802
    39.53  0.47289  0.50552  -0.14624
    42.15  0.46054  0.53565  -0.15328
    44.76  0.44758  0.56606  -0.16009
    47.38  0.43462  0.59647  -0.16690
    50.00  0.42166  0.62688  -0.17371
    60.00  0.34596  0.73476  -0.19692
    70.00  0.24469  0.82038  -0.21712
    80.00  0.12538  0.87267  -0.23371
    90.00  0.00005  0.88440  -0.24564
   100.00  -0.08768  0.87267  -0.25552
   110.00  -0.17140  0.82038  -0.25738
   120.00  -0.24209  0.73476  -0.25266
   130.00  -0.29523  0.62688  -0.24459
   140.00  -0.32982  0.51042  -0.23792
   150.00  -0.35538  0.40018  -0.24188
   160.00  -0.39549  0.30984  -0.28079
   170.00  -0.19747  0.25074  -0.25071
   180.00  0.00005  0.23014  -0.00005
EOT
