AeroDyn airfoil file.  Compatible with AeroDyn v13.0.
Interpolated thickness: 0.442

  1        Number of airfoil tables in this file
  9990     Reynolds number in millions.  For efficiency, make very large if only one table.
  0        Control setting
  10.7764  Stall angle (deg)
  -3.47755 Zero lift angle of attack (deg)
  4.87032  Cn slope for zero lift (dimensionless)
  1.21163  Cn at stall value for positive angle of attack
  -0.8     Cn at stall value for negative angle of attack
  -2.12    Angle of attack for minimum CD (deg)
  0.100736 Minimum CD value
  -180.00  0.00003  0.17445  -0.00003
  -170.00  0.28931  0.20463  0.29366
  -160.00  0.57932  0.29119  -0.10517
  -150.00  0.52058  0.42349  -0.04628
  -140.00  0.48314  0.58495  -0.00524
  -130.00  0.43248  0.75550  0.03448
  -120.00  0.35465  0.91351  0.07391
  -110.00  0.25113  1.03891  0.11047
  -100.00  0.12851  1.11549  0.14043
   -90.00  0.00003  1.13267  0.16010
   -80.00  -0.12846  1.11549  0.17464
   -70.00  -0.25107  1.03891  0.17729
   -60.00  -0.35460  0.91351  0.17046
   -50.00  -0.43242  0.75550  0.15856
   -40.00  -0.48308  0.58495  0.14887
   -30.00  -0.52053  0.42349  0.15467
   -20.00  -0.57780  0.29104  0.21106
   -10.00  -0.23639  0.17085  0.09329
    -4.17  -0.05284  0.10088  -0.09885
    -3.17  0.03086  0.10081  -0.10032
    -2.12  0.11750  0.10074  -0.10149
    -1.08  0.20487  0.10074  -0.10282
    -0.05  0.29151  0.10081  -0.10355
    -0.03  0.29171  0.10081  -0.10355
     1.17  0.39406  0.10097  -0.10450
     2.33  0.49045  0.10110  -0.10530
     3.50  0.58716  0.10135  -0.10585
     4.66  0.68082  0.10156  -0.10571
     5.83  0.77150  0.10183  -0.10506
     7.00  0.85748  0.10229  -0.10348
     8.16  0.92807  0.10279  -0.09914
    10.78  0.96015  0.11209  -0.07706
    13.39  0.84036  0.17708  -0.07117
    16.01  0.81148  0.21731  -0.07742
    18.62  0.83000  0.25738  -0.08713
    21.24  0.82540  0.30768  -0.10295
    23.85  0.80075  0.34235  -0.12304
    26.47  0.77610  0.37701  -0.14313
    29.08  0.75145  0.41168  -0.16322
    31.70  0.73395  0.45128  -0.17801
    34.31  0.72014  0.49344  -0.19005
    36.93  0.70634  0.53560  -0.20209
    39.54  0.69254  0.57776  -0.21413
    42.16  0.67444  0.62189  -0.22445
    44.77  0.65546  0.66643  -0.23442
    47.39  0.63648  0.71097  -0.24439
    50.00  0.61750  0.75550  -0.25436
    60.00  0.50663  0.91351  -0.28835
    70.00  0.35832  1.03891  -0.31794
    80.00  0.18358  1.11549  -0.34224
    90.00  0.00003  1.13267  -0.35972
   100.00  -0.12846  1.11549  -0.37418
   110.00  -0.25107  1.03891  -0.37690
   120.00  -0.35460  0.91351  -0.37000
   130.00  -0.43242  0.75550  -0.35817
   140.00  -0.48308  0.58495  -0.34841
   150.00  -0.52053  0.42349  -0.35421
   160.00  -0.57927  0.29119  -0.41118
   170.00  -0.28925  0.20463  -0.36713
   180.00  0.00003  0.17445  -0.00003
EOT
