AeroDyn airfoil file.  Compatible with AeroDyn v13.0.
Interpolated thickness: 0.963

  1        Number of airfoil tables in this file
  9990     Reynolds number in millions.  For efficiency, make very large if only one table.
  0        Control setting
  10.635   Stall angle (deg)
  -1.74424 Zero lift angle of attack (deg)
  0.65215  Cn slope for zero lift (dimensionless)
  0.140903 Cn at stall value for positive angle of attack
  -0.8     Cn at stall value for negative angle of attack
  -2.12    Angle of attack for minimum CD (deg)
  0.333472 Minimum CD value
  -180.00  0.00010  0.33836  -0.00010
  -170.00  0.01928  0.34036  0.01938
  -160.00  0.03851  0.34610  -0.00707
  -150.00  0.03461  0.35487  -0.00316
  -140.00  0.03213  0.36558  -0.00044
  -130.00  0.02877  0.37689  0.00219
  -120.00  0.02361  0.38737  0.00481
  -110.00  0.01675  0.39568  0.00723
  -100.00  0.00861  0.40076  0.00922
   -90.00  0.00010  0.40190  0.01052
   -80.00  -0.00842  0.40076  0.01149
   -70.00  -0.01655  0.39568  0.01166
   -60.00  -0.02342  0.38737  0.01121
   -50.00  -0.02858  0.37689  0.01042
   -40.00  -0.03194  0.36558  0.00978
   -30.00  -0.03442  0.35487  0.01016
   -20.00  -0.03822  0.34609  0.01390
   -10.00  -0.01558  0.33812  0.00609
    -4.17  -0.00341  0.33348  -0.00665
    -3.17  0.00214  0.33348  -0.00675
    -2.12  0.00788  0.33347  -0.00682
    -1.08  0.01368  0.33347  -0.00691
    -0.05  0.01942  0.33348  -0.00696
    -0.00  0.01944  0.33348  -0.00696
     1.14  0.02622  0.33349  -0.00702
     2.29  0.03261  0.33350  -0.00708
     3.43  0.03903  0.33351  -0.00711
     4.58  0.04524  0.33353  -0.00710
     5.72  0.05125  0.33354  -0.00706
     6.87  0.05695  0.33357  -0.00696
     8.01  0.06163  0.33361  -0.00667
    10.64  0.06376  0.33422  -0.00520
    13.26  0.05582  0.33853  -0.00481
    15.88  0.05390  0.34120  -0.00523
    18.51  0.05513  0.34386  -0.00587
    21.13  0.05482  0.34719  -0.00692
    23.76  0.05319  0.34949  -0.00825
    26.38  0.05156  0.35179  -0.00958
    29.01  0.04992  0.35409  -0.01092
    31.63  0.04876  0.35672  -0.01190
    34.25  0.04784  0.35951  -0.01269
    36.88  0.04693  0.36231  -0.01349
    39.50  0.04601  0.36510  -0.01429
    42.13  0.04481  0.36803  -0.01498
    44.75  0.04356  0.37098  -0.01564
    47.38  0.04230  0.37394  -0.01630
    50.00  0.04104  0.37689  -0.01696
    60.00  0.03369  0.38737  -0.01921
    70.00  0.02385  0.39568  -0.02118
    80.00  0.01227  0.40076  -0.02279
    90.00  0.00010  0.40190  -0.02395
   100.00  -0.00842  0.40076  -0.02490
   110.00  -0.01655  0.39568  -0.02508
   120.00  -0.02342  0.38737  -0.02463
   130.00  -0.02858  0.37689  -0.02384
   140.00  -0.03194  0.36558  -0.02320
   150.00  -0.03442  0.35487  -0.02358
   160.00  -0.03832  0.34610  -0.02736
   170.00  -0.01909  0.34036  -0.02444
   180.00  0.00010  0.33836  -0.00010
EOT
