AeroDyn airfoil file.  Compatible with AeroDyn v13.0.
Interpolated thickness: 0.444

  1        Number of airfoil tables in this file
  9990     Reynolds number in millions.  For efficiency, make very large if only one table.
  0        Control setting
  10.7759  Stall angle (deg)
  -3.47622 Zero lift angle of attack (deg)
  4.8546   Cn slope for zero lift (dimensionless)
  1.20756  Cn at stall value for positive angle of attack
  -0.8     Cn at stall value for negative angle of attack
  -2.12    Angle of attack for minimum CD (deg)
  0.101629 Minimum CD value
  -180.00  0.00003  0.17508  -0.00003
  -170.00  0.28827  0.20515  0.29260
  -160.00  0.57724  0.29140  -0.10479
  -150.00  0.51872  0.42323  -0.04612
  -140.00  0.48141  0.58411  -0.00522
  -130.00  0.43093  0.75405  0.03436
  -120.00  0.35338  0.91149  0.07364
  -110.00  0.25023  1.03644  0.11008
  -100.00  0.12805  1.11274  0.13992
   -90.00  0.00003  1.12986  0.15953
   -80.00  -0.12800  1.11274  0.17402
   -70.00  -0.25017  1.03644  0.17665
   -60.00  -0.35333  0.91149  0.16985
   -50.00  -0.43087  0.75405  0.15799
   -40.00  -0.48135  0.58411  0.14834
   -30.00  -0.51866  0.42323  0.15412
   -20.00  -0.57573  0.29125  0.21030
   -10.00  -0.23554  0.17149  0.09296
    -4.17  -0.05265  0.10178  -0.09850
    -3.17  0.03075  0.10170  -0.09996
    -2.12  0.11708  0.10163  -0.10113
    -1.08  0.20414  0.10163  -0.10245
    -0.05  0.29046  0.10170  -0.10318
    -0.03  0.29066  0.10170  -0.10318
     1.17  0.39264  0.10186  -0.10412
     2.33  0.48870  0.10199  -0.10492
     3.50  0.58505  0.10224  -0.10547
     4.66  0.67838  0.10245  -0.10533
     5.83  0.76874  0.10272  -0.10468
     7.00  0.85440  0.10318  -0.10311
     8.16  0.92474  0.10368  -0.09879
    10.78  0.95671  0.11295  -0.07678
    13.39  0.83735  0.17770  -0.07092
    16.01  0.80857  0.21778  -0.07714
    18.62  0.82703  0.25771  -0.08682
    21.24  0.82244  0.30783  -0.10258
    23.85  0.79788  0.34237  -0.12260
    26.47  0.77332  0.37692  -0.14262
    29.08  0.74876  0.41146  -0.16264
    31.70  0.73132  0.45092  -0.17737
    34.31  0.71756  0.49293  -0.18937
    36.93  0.70381  0.53494  -0.20136
    39.54  0.69006  0.57695  -0.21336
    42.16  0.67202  0.62092  -0.22364
    44.77  0.65311  0.66530  -0.23358
    47.39  0.63420  0.70967  -0.24351
    50.00  0.61528  0.75405  -0.25345
    60.00  0.50482  0.91149  -0.28732
    70.00  0.35704  1.03644  -0.31680
    80.00  0.18292  1.11274  -0.34102
    90.00  0.00003  1.12986  -0.35843
   100.00  -0.12800  1.11274  -0.37284
   110.00  -0.25017  1.03644  -0.37555
   120.00  -0.35333  0.91149  -0.36867
   130.00  -0.43087  0.75405  -0.35689
   140.00  -0.48135  0.58411  -0.34716
   150.00  -0.51866  0.42323  -0.35294
   160.00  -0.57719  0.29140  -0.40971
   170.00  -0.28822  0.20515  -0.36582
   180.00  0.00003  0.17508  -0.00003
EOT
