AeroDyn airfoil file.  Compatible with AeroDyn v13.0.
Interpolated thickness: 0.891

  1        Number of airfoil tables in this file
  9990     Reynolds number in millions.  For efficiency, make very large if only one table.
  0        Control setting
  10.6546  Stall angle (deg)
  -2.6967  Zero lift angle of attack (deg)
  1.23825  Cn slope for zero lift (dimensionless)
  0.288542 Cn at stall value for positive angle of attack
  -0.8     Cn at stall value for negative angle of attack
  -2.12    Angle of attack for minimum CD (deg)
  0.301309 Minimum CD value
  -180.00  0.00009  0.31571  -0.00009
  -170.00  0.05659  0.32160  0.05728
  -160.00  0.11324  0.33851  -0.02062
  -150.00  0.10177  0.36436  -0.00912
  -140.00  0.09446  0.39589  -0.00110
  -130.00  0.08456  0.42921  0.00666
  -120.00  0.06936  0.46008  0.01436
  -110.00  0.04914  0.48457  0.02150
  -100.00  0.02518  0.49953  0.02735
   -90.00  0.00009  0.50289  0.03119
   -80.00  -0.02501  0.49953  0.03403
   -70.00  -0.04896  0.48457  0.03455
   -60.00  -0.06919  0.46008  0.03322
   -50.00  -0.08439  0.42921  0.03089
   -40.00  -0.09429  0.39589  0.02900
   -30.00  -0.10160  0.36436  0.03013
   -20.00  -0.11279  0.33848  0.04115
   -10.00  -0.04610  0.31501  0.01814
    -4.17  -0.01024  0.30134  -0.01939
    -3.17  0.00611  0.30132  -0.01968
    -2.12  0.02303  0.30131  -0.01991
    -1.08  0.04010  0.30131  -0.02016
    -0.05  0.05702  0.30132  -0.02031
    -0.01  0.05706  0.30132  -0.02031
     1.15  0.07706  0.30135  -0.02049
     2.29  0.09589  0.30138  -0.02065
     3.44  0.11478  0.30143  -0.02076
     4.59  0.13307  0.30147  -0.02073
     5.74  0.15079  0.30152  -0.02060
     6.88  0.16758  0.30161  -0.02029
     8.03  0.18137  0.30171  -0.01945
    10.65  0.18764  0.30353  -0.01513
    13.28  0.16424  0.31622  -0.01398
    15.90  0.15860  0.32408  -0.01520
    18.52  0.16221  0.33191  -0.01710
    21.15  0.16131  0.34173  -0.02019
    23.77  0.15650  0.34850  -0.02411
    26.39  0.15168  0.35528  -0.02804
    29.02  0.14687  0.36205  -0.03196
    31.64  0.14345  0.36978  -0.03485
    34.26  0.14075  0.37802  -0.03720
    36.88  0.13806  0.38626  -0.03956
    39.51  0.13536  0.39449  -0.04191
    42.13  0.13183  0.40311  -0.04392
    44.75  0.12812  0.41181  -0.04587
    47.38  0.12441  0.42051  -0.04782
    50.00  0.12070  0.42921  -0.04977
    60.00  0.09905  0.46008  -0.05641
    70.00  0.07008  0.48457  -0.06219
    80.00  0.03594  0.49953  -0.06693
    90.00  0.00009  0.50289  -0.07035
   100.00  -0.02501  0.49953  -0.07317
   110.00  -0.04896  0.48457  -0.07370
   120.00  -0.06919  0.46008  -0.07236
   130.00  -0.08439  0.42921  -0.07005
   140.00  -0.09429  0.39589  -0.06814
   150.00  -0.10160  0.36436  -0.06927
   160.00  -0.11307  0.33851  -0.08040
   170.00  -0.05642  0.32160  -0.07180
   180.00  0.00009  0.31571  -0.00009
EOT
