AeroDyn airfoil file.  Compatible with AeroDyn v13.0.
Interpolated thickness: 0.454

  1        Number of airfoil tables in this file
  9990     Reynolds number in millions.  For efficiency, make very large if only one table.
  0        Control setting
  10.7732  Stall angle (deg)
  -3.4695  Zero lift angle of attack (deg)
  4.77598  Cn slope for zero lift (dimensionless)
  1.18722  Cn at stall value for positive angle of attack
  -0.8     Cn at stall value for negative angle of attack
  -2.12    Angle of attack for minimum CD (deg)
  0.106096 Minimum CD value
  -180.00  0.00003  0.17823  -0.00003
  -170.00  0.28309  0.20775  0.28734
  -160.00  0.56686  0.29245  -0.10291
  -150.00  0.50939  0.42191  -0.04529
  -140.00  0.47275  0.57989  -0.00513
  -130.00  0.42318  0.74678  0.03374
  -120.00  0.34703  0.90139  0.07232
  -110.00  0.24573  1.02409  0.10809
  -100.00  0.12575  1.09903  0.13741
   -90.00  0.00003  1.11584  0.15666
   -80.00  -0.12570  1.09903  0.17088
   -70.00  -0.24567  1.02409  0.17347
   -60.00  -0.34697  0.90139  0.16679
   -50.00  -0.42312  0.74678  0.15515
   -40.00  -0.47269  0.57989  0.14567
   -30.00  -0.50933  0.42191  0.15134
   -20.00  -0.56537  0.29231  0.20652
   -10.00  -0.23130  0.17471  0.09128
    -4.17  -0.05170  0.10624  -0.09673
    -3.17  0.03020  0.10617  -0.09816
    -2.12  0.11498  0.10610  -0.09931
    -1.08  0.20047  0.10610  -0.10061
    -0.05  0.28524  0.10617  -0.10133
    -0.03  0.28544  0.10617  -0.10133
     1.17  0.38558  0.10633  -0.10225
     2.33  0.47991  0.10645  -0.10304
     3.50  0.57453  0.10670  -0.10358
     4.66  0.66618  0.10690  -0.10344
     5.83  0.75491  0.10717  -0.10280
     6.99  0.83904  0.10762  -0.10126
     8.16  0.90811  0.10811  -0.09701
    10.77  0.93951  0.11721  -0.07540
    13.39  0.82229  0.18080  -0.06965
    16.00  0.79403  0.22016  -0.07576
    18.62  0.81216  0.25937  -0.08526
    21.23  0.80765  0.30859  -0.10074
    23.85  0.78353  0.34251  -0.12039
    26.46  0.75941  0.37643  -0.14005
    29.08  0.73529  0.41035  -0.15971
    31.69  0.71817  0.44911  -0.17418
    34.31  0.70466  0.49036  -0.18596
    36.92  0.69115  0.53161  -0.19774
    39.54  0.67765  0.57286  -0.20952
    42.15  0.65994  0.61605  -0.21962
    44.77  0.64136  0.65963  -0.22938
    47.38  0.62279  0.70321  -0.23913
    50.00  0.60422  0.74678  -0.24889
    60.00  0.49574  0.90139  -0.28215
    70.00  0.35062  1.02409  -0.31110
    80.00  0.17963  1.09903  -0.33488
    90.00  0.00003  1.11584  -0.35198
   100.00  -0.12570  1.09903  -0.36614
   110.00  -0.24567  1.02409  -0.36879
   120.00  -0.34697  0.90139  -0.36204
   130.00  -0.42312  0.74678  -0.35047
   140.00  -0.47269  0.57989  -0.34092
   150.00  -0.50933  0.42191  -0.34659
   160.00  -0.56681  0.29245  -0.40234
   170.00  -0.28303  0.20775  -0.35924
   180.00  0.00003  0.17823  -0.00003
EOT
