AeroDyn airfoil file.  Compatible with AeroDyn v13.0.
Interpolated thickness: 0.316

  1        Number of airfoil tables in this file
  9990     Reynolds number in millions.  For efficiency, make very large if only one table.
  0        Control setting
  10.8106  Stall angle (deg)
  -3.55194 Zero lift angle of attack (deg)
  5.85347  Cn slope for zero lift (dimensionless)
  1.46731  Cn at stall value for positive angle of attack
  -0.8     Cn at stall value for negative angle of attack
  -2.12    Angle of attack for minimum CD (deg)
  0.04445  Minimum CD value
  -180.00  0.00001  0.13481  -0.00001
  -170.00  0.35461  0.17180  0.35999
  -160.00  0.71011  0.27791  -0.12889
  -150.00  0.63811  0.44009  -0.05671
  -140.00  0.59221  0.63800  -0.00640
  -130.00  0.53011  0.84707  0.04229
  -120.00  0.43471  1.04075  0.09062
  -110.00  0.30781  1.19447  0.13544
  -100.00  0.15751  1.28834  0.17216
   -90.00  0.00001  1.30940  0.19628
   -80.00  -0.15749  1.28834  0.21410
   -70.00  -0.30779  1.19447  0.21734
   -60.00  -0.43469  1.04075  0.20897
   -50.00  -0.53009  0.84707  0.19439
   -40.00  -0.59219  0.63800  0.18251
   -30.00  -0.63809  0.44009  0.18962
   -20.00  -0.70829  0.27773  0.25874
   -10.00  -0.28979  0.13040  0.11438
    -4.17  -0.06479  0.04463  -0.12115
    -3.17  0.03781  0.04454  -0.12295
    -2.12  0.14401  0.04445  -0.12439
    -1.08  0.25111  0.04445  -0.12601
    -0.05  0.35731  0.04454  -0.12691
    -0.04  0.35756  0.04454  -0.12691
     1.17  0.48301  0.04474  -0.12807
     2.34  0.60118  0.04490  -0.12906
     3.51  0.71972  0.04520  -0.12973
     4.68  0.83454  0.04546  -0.12956
     5.86  0.94569  0.04579  -0.12875
     7.03  1.05108  0.04635  -0.12683
     8.20  1.13761  0.04697  -0.12151
    10.81  1.17694  0.05837  -0.09444
    13.42  1.03009  0.13803  -0.08722
    16.04  0.99470  0.18735  -0.09488
    18.65  1.01740  0.23647  -0.10678
    21.26  1.01176  0.29812  -0.12617
    23.87  0.98154  0.34062  -0.15080
    26.49  0.95132  0.38311  -0.17543
    29.10  0.92111  0.42561  -0.20006
    31.71  0.89966  0.47416  -0.21818
    34.32  0.88274  0.52583  -0.23294
    36.94  0.86581  0.57751  -0.24770
    39.55  0.84889  0.62919  -0.26245
    42.16  0.82671  0.68329  -0.27511
    44.77  0.80344  0.73788  -0.28733
    47.39  0.78018  0.79248  -0.29955
    50.00  0.75691  0.84707  -0.31177
    60.00  0.62101  1.04075  -0.35344
    70.00  0.43921  1.19447  -0.38971
    80.00  0.22501  1.28834  -0.41950
    90.00  0.00001  1.30940  -0.44092
   100.00  -0.15749  1.28834  -0.45865
   110.00  -0.30779  1.19447  -0.46198
   120.00  -0.43469  1.04075  -0.45352
   130.00  -0.53009  0.84707  -0.43903
   140.00  -0.59219  0.63800  -0.42706
   150.00  -0.63809  0.44009  -0.43417
   160.00  -0.71009  0.27791  -0.50401
   170.00  -0.35459  0.17180  -0.45001
   180.00  0.00001  0.13481  -0.00001
EOT
