AeroDyn airfoil file.  Compatible with AeroDyn v13.0.
Interpolated thickness: 0.336

  1        Number of airfoil tables in this file
  9990     Reynolds number in millions.  For efficiency, make very large if only one table.
  0        Control setting
  10.8052  Stall angle (deg)
  -3.54116 Zero lift angle of attack (deg)
  5.69831  Cn slope for zero lift (dimensionless)
  1.42681  Cn at stall value for positive angle of attack
  -0.8     Cn at stall value for negative angle of attack
  -2.12    Angle of attack for minimum CD (deg)
  0.0533842 Minimum CD value
  -180.00  0.00001  0.14110  -0.00001
  -170.00  0.34424  0.17701  0.34946
  -160.00  0.68935  0.28002  -0.12512
  -150.00  0.61945  0.43746  -0.05505
  -140.00  0.57490  0.62958  -0.00622
  -130.00  0.51461  0.83254  0.04105
  -120.00  0.42200  1.02055  0.08797
  -110.00  0.29881  1.16978  0.13148
  -100.00  0.15291  1.26090  0.16712
   -90.00  0.00001  1.28135  0.19054
   -80.00  -0.15288  1.26090  0.20784
   -70.00  -0.29879  1.16978  0.21098
   -60.00  -0.42198  1.02055  0.20286
   -50.00  -0.51459  0.83254  0.18870
   -40.00  -0.57487  0.62958  0.17717
   -30.00  -0.61943  0.43746  0.18407
   -20.00  -0.68758  0.27984  0.25117
   -10.00  -0.28131  0.13682  0.11103
    -4.17  -0.06289  0.05356  -0.11761
    -3.17  0.03671  0.05347  -0.11936
    -2.12  0.13980  0.05338  -0.12076
    -1.08  0.24377  0.05338  -0.12233
    -0.05  0.34687  0.05347  -0.12320
    -0.04  0.34710  0.05347  -0.12320
     1.17  0.46889  0.05366  -0.12433
     2.34  0.58360  0.05382  -0.12529
     3.51  0.69868  0.05411  -0.12594
     4.68  0.81014  0.05436  -0.12578
     5.85  0.91804  0.05469  -0.12499
     7.02  1.02035  0.05523  -0.12312
     8.19  1.10435  0.05583  -0.11796
    10.81  1.14253  0.06690  -0.09168
    13.42  0.99998  0.14423  -0.08468
    16.03  0.96562  0.19210  -0.09211
    18.64  0.98766  0.23979  -0.10366
    21.26  0.98218  0.29964  -0.12248
    23.87  0.95284  0.34089  -0.14639
    26.48  0.92351  0.38214  -0.17030
    29.10  0.89418  0.42340  -0.19421
    31.71  0.87335  0.47052  -0.21180
    34.32  0.85693  0.52069  -0.22613
    36.94  0.84050  0.57086  -0.24046
    39.55  0.82408  0.62103  -0.25478
    42.16  0.80254  0.67354  -0.26707
    44.77  0.77995  0.72654  -0.27893
    47.39  0.75737  0.77954  -0.29079
    50.00  0.73478  0.83254  -0.30266
    60.00  0.60285  1.02055  -0.34311
    70.00  0.42637  1.16978  -0.37832
    80.00  0.21843  1.26090  -0.40724
    90.00  0.00001  1.28135  -0.42803
   100.00  -0.15288  1.26090  -0.44524
   110.00  -0.29879  1.16978  -0.44847
   120.00  -0.42198  1.02055  -0.44026
   130.00  -0.51459  0.83254  -0.42620
   140.00  -0.57487  0.62958  -0.41458
   150.00  -0.61943  0.43746  -0.42148
   160.00  -0.68932  0.28002  -0.48928
   170.00  -0.34422  0.17701  -0.43685
   180.00  0.00001  0.14110  -0.00001
EOT
