AeroDyn airfoil file.  Compatible with AeroDyn v13.0.
Interpolated thickness: 0.457

  1        Number of airfoil tables in this file
  9990     Reynolds number in millions.  For efficiency, make very large if only one table.
  0        Control setting
  10.7724  Stall angle (deg)
  -3.46746 Zero lift angle of attack (deg)
  4.75238  Cn slope for zero lift (dimensionless)
  1.18112  Cn at stall value for positive angle of attack
  -0.8     Cn at stall value for negative angle of attack
  -2.12    Angle of attack for minimum CD (deg)
  0.107436 Minimum CD value
  -180.00  0.00003  0.17917  -0.00003
  -170.00  0.28153  0.20853  0.28576
  -160.00  0.56375  0.29277  -0.10234
  -150.00  0.50659  0.42152  -0.04504
  -140.00  0.47015  0.57863  -0.00510
  -130.00  0.42085  0.74460  0.03355
  -120.00  0.34512  0.89836  0.07192
  -110.00  0.24438  1.02039  0.10750
  -100.00  0.12506  1.09491  0.13665
   -90.00  0.00003  1.11163  0.15580
   -80.00  -0.12500  1.09491  0.16994
   -70.00  -0.24432  1.02039  0.17252
   -60.00  -0.34506  0.89836  0.16587
   -50.00  -0.42080  0.74460  0.15430
   -40.00  -0.47010  0.57863  0.14487
   -30.00  -0.50653  0.42152  0.15051
   -20.00  -0.56226  0.29263  0.20538
   -10.00  -0.23003  0.17567  0.09078
    -4.17  -0.05141  0.10758  -0.09620
    -3.17  0.03004  0.10751  -0.09763
    -2.12  0.11434  0.10744  -0.09877
    -1.08  0.19937  0.10744  -0.10005
    -0.05  0.28367  0.10751  -0.10077
    -0.03  0.28387  0.10751  -0.10077
     1.17  0.38347  0.10766  -0.10169
     2.33  0.47727  0.10779  -0.10247
     3.50  0.57138  0.10803  -0.10301
     4.66  0.66253  0.10823  -0.10287
     5.83  0.75077  0.10850  -0.10223
     6.99  0.83443  0.10895  -0.10070
     8.16  0.90312  0.10944  -0.09648
    10.77  0.93434  0.11849  -0.07499
    13.39  0.81777  0.18173  -0.06926
    16.00  0.78967  0.22088  -0.07534
    18.62  0.80769  0.25987  -0.08479
    21.23  0.80321  0.30882  -0.10018
    23.85  0.77923  0.34255  -0.11973
    26.46  0.75524  0.37629  -0.13929
    29.08  0.73125  0.41002  -0.15884
    31.69  0.71422  0.44856  -0.17322
    34.31  0.70079  0.48959  -0.18494
    36.92  0.68736  0.53061  -0.19666
    39.54  0.67392  0.57164  -0.20837
    42.15  0.65631  0.61459  -0.21842
    44.77  0.63784  0.65792  -0.22812
    47.38  0.61937  0.70126  -0.23782
    50.00  0.60090  0.74460  -0.24752
    60.00  0.49302  0.89836  -0.28060
    70.00  0.34869  1.02039  -0.30940
    80.00  0.17865  1.09491  -0.33304
    90.00  0.00003  1.11163  -0.35005
   100.00  -0.12500  1.09491  -0.36412
   110.00  -0.24432  1.02039  -0.36677
   120.00  -0.34506  0.89836  -0.36005
   130.00  -0.42080  0.74460  -0.34855
   140.00  -0.47010  0.57863  -0.33905
   150.00  -0.50653  0.42152  -0.34469
   160.00  -0.56369  0.29277  -0.40013
   170.00  -0.28147  0.20853  -0.35727
   180.00  0.00003  0.17917  -0.00003
EOT
