AeroDyn airfoil file.  Compatible with AeroDyn v13.0.
Interpolated thickness: 0.682

  1        Number of airfoil tables in this file
  9990     Reynolds number in millions.  For efficiency, make very large if only one table.
  0        Control setting
  10.7113  Stall angle (deg)
  -3.2523  Zero lift angle of attack (deg)
  2.9599   Cn slope for zero lift (dimensionless)
  0.721361 Cn at stall value for positive angle of attack
  -0.8     Cn at stall value for negative angle of attack
  -2.12    Angle of attack for minimum CD (deg)
  0.207946 Minimum CD value
  -180.00  0.00006  0.24996  -0.00006
  -170.00  0.16492  0.26715  0.16731
  -160.00  0.33019  0.31648  -0.05998
  -150.00  0.29672  0.39188  -0.02642
  -140.00  0.27538  0.48389  -0.00303
  -130.00  0.24651  0.58109  0.01961
  -120.00  0.20216  0.67114  0.04208
  -110.00  0.14316  0.74260  0.06291
  -100.00  0.07328  0.78625  0.07999
   -90.00  0.00006  0.79604  0.09120
   -80.00  -0.07317  0.78625  0.09948
   -70.00  -0.14304  0.74260  0.10099
   -60.00  -0.20204  0.67114  0.09710
   -50.00  -0.24639  0.58109  0.09032
   -40.00  -0.27526  0.48389  0.08480
   -30.00  -0.29660  0.39188  0.08810
   -20.00  -0.32924  0.31640  0.12024
   -10.00  -0.13467  0.24791  0.05312
    -4.17  -0.03007  0.20803  -0.05638
    -3.17  0.01763  0.20799  -0.05721
    -2.12  0.06701  0.20795  -0.05788
    -1.08  0.11680  0.20795  -0.05864
    -0.05  0.16617  0.20799  -0.05906
    -0.02  0.16629  0.20799  -0.05906
     1.16  0.22461  0.20808  -0.05959
     2.31  0.27955  0.20815  -0.06005
     3.47  0.33466  0.20830  -0.06037
     4.62  0.38804  0.20841  -0.06029
     5.78  0.43972  0.20857  -0.05991
     6.94  0.48871  0.20883  -0.05902
     8.09  0.52894  0.20912  -0.05655
    10.71  0.54723  0.21442  -0.04396
    13.33  0.47896  0.25145  -0.04060
    15.95  0.46250  0.27438  -0.04416
    18.57  0.47306  0.29722  -0.04970
    21.19  0.47043  0.32588  -0.05871
    23.81  0.45638  0.34564  -0.07016
    26.43  0.44234  0.36539  -0.08161
    29.05  0.42829  0.38515  -0.09306
    31.67  0.41831  0.40772  -0.10149
    34.28  0.41045  0.43175  -0.10835
    36.90  0.40258  0.45577  -0.11521
    39.52  0.39471  0.47980  -0.12207
    42.14  0.38440  0.50495  -0.12795
    44.76  0.37358  0.53033  -0.13364
    47.38  0.36277  0.55571  -0.13932
    50.00  0.35195  0.58109  -0.14500
    60.00  0.28877  0.67114  -0.16437
    70.00  0.20425  0.74260  -0.18123
    80.00  0.10466  0.78625  -0.19508
    90.00  0.00006  0.79604  -0.20504
   100.00  -0.07317  0.78625  -0.21329
   110.00  -0.14304  0.74260  -0.21483
   120.00  -0.20204  0.67114  -0.21090
   130.00  -0.24639  0.58109  -0.20416
   140.00  -0.27526  0.48389  -0.19860
   150.00  -0.29660  0.39188  -0.20190
   160.00  -0.33008  0.31648  -0.23437
   170.00  -0.16480  0.26715  -0.20927
   180.00  0.00006  0.24996  -0.00006
EOT
