AeroDyn airfoil file.  Compatible with AeroDyn v13.0.
Interpolated thickness: 0.449

  1        Number of airfoil tables in this file
  9990     Reynolds number in millions.  For efficiency, make very large if only one table.
  0        Control setting
  10.7745  Stall angle (deg)
  -3.47288 Zero lift angle of attack (deg)
  4.8153   Cn slope for zero lift (dimensionless)
  1.19739  Cn at stall value for positive angle of attack
  -0.8     Cn at stall value for negative angle of attack
  -2.12    Angle of attack for minimum CD (deg)
  0.103863 Minimum CD value
  -180.00  0.00003  0.17665  -0.00003
  -170.00  0.28568  0.20645  0.28997
  -160.00  0.57205  0.29193  -0.10385
  -150.00  0.51405  0.42257  -0.04570
  -140.00  0.47708  0.58200  -0.00517
  -130.00  0.42705  0.75042  0.03405
  -120.00  0.35020  0.90644  0.07298
  -110.00  0.24798  1.03027  0.10908
  -100.00  0.12690  1.10588  0.13866
   -90.00  0.00003  1.12285  0.15809
   -80.00  -0.12685  1.10588  0.17245
   -70.00  -0.24792  1.03027  0.17506
   -60.00  -0.35015  0.90644  0.16832
   -50.00  -0.42700  0.75042  0.15657
   -40.00  -0.47702  0.58200  0.14700
   -30.00  -0.51400  0.42257  0.15273
   -20.00  -0.57055  0.29178  0.20841
   -10.00  -0.23342  0.17310  0.09212
    -4.17  -0.05217  0.10401  -0.09761
    -3.17  0.03048  0.10394  -0.09906
    -2.12  0.11603  0.10386  -0.10022
    -1.08  0.20230  0.10386  -0.10153
    -0.05  0.28785  0.10394  -0.10225
    -0.03  0.28805  0.10394  -0.10225
     1.17  0.38911  0.10409  -0.10319
     2.33  0.48430  0.10422  -0.10398
     3.50  0.57979  0.10447  -0.10453
     4.66  0.67228  0.10467  -0.10439
     5.83  0.76183  0.10494  -0.10374
     6.99  0.84672  0.10540  -0.10219
     8.16  0.91643  0.10589  -0.09790
    10.77  0.94811  0.11508  -0.07609
    13.39  0.82982  0.17925  -0.07028
    16.00  0.80130  0.21897  -0.07645
    18.62  0.81959  0.25854  -0.08604
    21.23  0.81505  0.30821  -0.10166
    23.85  0.79070  0.34244  -0.12150
    26.46  0.76636  0.37667  -0.14134
    29.08  0.74202  0.41091  -0.16118
    31.69  0.72474  0.45001  -0.17577
    34.31  0.71111  0.49164  -0.18766
    36.92  0.69748  0.53327  -0.19955
    39.54  0.68385  0.57491  -0.21144
    42.15  0.66598  0.61848  -0.22163
    44.77  0.64724  0.66246  -0.23148
    47.38  0.62849  0.70644  -0.24132
    50.00  0.60975  0.75042  -0.25117
    60.00  0.50028  0.90644  -0.28473
    70.00  0.35383  1.03027  -0.31395
    80.00  0.18128  1.10588  -0.33795
    90.00  0.00003  1.12285  -0.35520
   100.00  -0.12685  1.10588  -0.36949
   110.00  -0.24792  1.03027  -0.37217
   120.00  -0.35015  0.90644  -0.36535
   130.00  -0.42700  0.75042  -0.35368
   140.00  -0.47702  0.58200  -0.34404
   150.00  -0.51400  0.42257  -0.34977
   160.00  -0.57200  0.29193  -0.40603
   170.00  -0.28562  0.20645  -0.36253
   180.00  0.00003  0.17665  -0.00003
EOT
