AeroDyn airfoil file.  Compatible with AeroDyn v13.0.
Interpolated thickness: 0.709

  1        Number of airfoil tables in this file
  9990     Reynolds number in millions.  For efficiency, make very large if only one table.
  0        Control setting
  10.704   Stall angle (deg)
  -3.21199 Zero lift angle of attack (deg)
  2.74183  Cn slope for zero lift (dimensionless)
  0.665933 Cn at stall value for positive angle of attack
  -0.8     Cn at stall value for negative angle of attack
  -2.12    Angle of attack for minimum CD (deg)
  0.220007 Minimum CD value
  -180.00  0.00006  0.25845  -0.00006
  -170.00  0.15092  0.27419  0.15310
  -160.00  0.30217  0.31933  -0.05489
  -150.00  0.27153  0.38833  -0.02418
  -140.00  0.25201  0.47253  -0.00278
  -130.00  0.22559  0.56147  0.01793
  -120.00  0.18500  0.64387  0.03850
  -110.00  0.13101  0.70927  0.05756
  -100.00  0.06707  0.74921  0.07319
   -90.00  0.00006  0.75817  0.08345
   -80.00  -0.06694  0.74921  0.09103
   -70.00  -0.13089  0.70927  0.09241
   -60.00  -0.18488  0.64387  0.08885
   -50.00  -0.22546  0.56147  0.08264
   -40.00  -0.25188  0.47253  0.07759
   -30.00  -0.27141  0.38833  0.08061
   -20.00  -0.30128  0.31925  0.11002
   -10.00  -0.12323  0.25657  0.04860
    -4.17  -0.02751  0.22008  -0.05160
    -3.17  0.01614  0.22005  -0.05237
    -2.12  0.06132  0.22001  -0.05298
    -1.08  0.10689  0.22001  -0.05367
    -0.05  0.15207  0.22005  -0.05405
    -0.02  0.15218  0.22005  -0.05405
     1.15  0.20555  0.22013  -0.05454
     2.31  0.25582  0.22020  -0.05496
     3.46  0.30625  0.22033  -0.05525
     4.62  0.35510  0.22044  -0.05518
     5.77  0.40239  0.22058  -0.05483
     6.93  0.44723  0.22082  -0.05401
     8.08  0.48404  0.22108  -0.05175
    10.70  0.50077  0.22593  -0.04023
    13.32  0.43830  0.25982  -0.03717
    15.94  0.42324  0.28080  -0.04042
    18.56  0.43290  0.30170  -0.04549
    21.18  0.43050  0.32793  -0.05374
    23.80  0.41764  0.34601  -0.06421
    26.42  0.40479  0.36409  -0.07469
    29.04  0.39193  0.38217  -0.08517
    31.66  0.38281  0.40282  -0.09288
    34.28  0.37561  0.42481  -0.09916
    36.90  0.36841  0.44679  -0.10544
    39.52  0.36121  0.46878  -0.11172
    42.14  0.35177  0.49179  -0.11710
    44.76  0.34187  0.51502  -0.12230
    47.38  0.33197  0.53825  -0.12750
    50.00  0.32208  0.56147  -0.13270
    60.00  0.26426  0.64387  -0.15042
    70.00  0.18691  0.70927  -0.16586
    80.00  0.09579  0.74921  -0.17853
    90.00  0.00006  0.75817  -0.18764
   100.00  -0.06694  0.74921  -0.19518
   110.00  -0.13089  0.70927  -0.19660
   120.00  -0.18488  0.64387  -0.19300
   130.00  -0.22546  0.56147  -0.18684
   140.00  -0.25188  0.47253  -0.18175
   150.00  -0.27141  0.38833  -0.18477
   160.00  -0.30204  0.31933  -0.21448
   170.00  -0.15080  0.27419  -0.19151
   180.00  0.00006  0.25845  -0.00006
EOT
