AeroDyn airfoil file.  Compatible with AeroDyn v13.0.
Interpolated thickness: 0.978

  1        Number of airfoil tables in this file
  9990     Reynolds number in millions.  For efficiency, make very large if only one table.
  0        Control setting
  10.631   Stall angle (deg)
  -1.28169 Zero lift angle of attack (deg)
  0.529637 Cn slope for zero lift (dimensionless)
  0.11012  Cn at stall value for positive angle of attack
  -0.8     Cn at stall value for negative angle of attack
  -2.12    Angle of attack for minimum CD (deg)
  0.340172 Minimum CD value
  -180.00  0.00010  0.34308  -0.00010
  -170.00  0.01150  0.34427  0.01148
  -160.00  0.02294  0.34768  -0.00424
  -150.00  0.02062  0.35290  -0.00192
  -140.00  0.01914  0.35926  -0.00030
  -130.00  0.01715  0.36599  0.00126
  -120.00  0.01408  0.37222  0.00282
  -110.00  0.01000  0.37716  0.00426
  -100.00  0.00516  0.38018  0.00544
   -90.00  0.00010  0.38086  0.00622
   -80.00  -0.00497  0.38018  0.00679
   -70.00  -0.00980  0.37716  0.00689
   -60.00  -0.01388  0.37222  0.00662
   -50.00  -0.01695  0.36599  0.00616
   -40.00  -0.01895  0.35926  0.00577
   -30.00  -0.02043  0.35290  0.00600
   -20.00  -0.02268  0.34768  0.00823
   -10.00  -0.00922  0.34294  0.00358
    -4.17  -0.00199  0.34018  -0.00399
    -3.17  0.00131  0.34018  -0.00405
    -2.12  0.00473  0.34017  -0.00410
    -1.08  0.00817  0.34017  -0.00415
    -0.05  0.01159  0.34018  -0.00418
    -0.00  0.01160  0.34018  -0.00418
     1.14  0.01563  0.34018  -0.00422
     2.29  0.01943  0.34019  -0.00425
     3.43  0.02325  0.34020  -0.00427
     4.58  0.02694  0.34020  -0.00426
     5.72  0.03051  0.34022  -0.00424
     6.86  0.03390  0.34023  -0.00418
     8.01  0.03669  0.34025  -0.00400
    10.63  0.03795  0.34062  -0.00313
    13.26  0.03323  0.34318  -0.00290
    15.88  0.03209  0.34477  -0.00315
    18.50  0.03282  0.34635  -0.00353
    21.13  0.03264  0.34833  -0.00415
    23.75  0.03167  0.34970  -0.00495
    26.38  0.03069  0.35107  -0.00574
    29.00  0.02972  0.35243  -0.00653
    31.63  0.02903  0.35399  -0.00711
    34.25  0.02849  0.35566  -0.00759
    36.88  0.02794  0.35732  -0.00806
    39.50  0.02740  0.35898  -0.00854
    42.13  0.02669  0.36072  -0.00895
    44.75  0.02594  0.36248  -0.00934
    47.38  0.02519  0.36423  -0.00973
    50.00  0.02444  0.36599  -0.01012
    60.00  0.02007  0.37222  -0.01146
    70.00  0.01422  0.37716  -0.01263
    80.00  0.00733  0.38018  -0.01359
    90.00  0.00010  0.38086  -0.01428
   100.00  -0.00497  0.38018  -0.01485
   110.00  -0.00980  0.37716  -0.01496
   120.00  -0.01388  0.37222  -0.01468
   130.00  -0.01695  0.36599  -0.01422
   140.00  -0.01895  0.35926  -0.01383
   150.00  -0.02043  0.35290  -0.01406
   160.00  -0.02274  0.34768  -0.01631
   170.00  -0.01131  0.34427  -0.01457
   180.00  0.00010  0.34308  -0.00010
EOT
