AeroDyn airfoil file.  Compatible with AeroDyn v13.0.
Interpolated thickness: 0.905

  1        Number of airfoil tables in this file
  9990     Reynolds number in millions.  For efficiency, make very large if only one table.
  0        Control setting
  10.6508  Stall angle (deg)
  -2.58869 Zero lift angle of attack (deg)
  1.12454  Cn slope for zero lift (dimensionless)
  0.25985  Cn at stall value for positive angle of attack
  -0.8     Cn at stall value for negative angle of attack
  -2.12    Angle of attack for minimum CD (deg)
  0.307562 Minimum CD value
  -180.00  0.00009  0.32011  -0.00009
  -170.00  0.04934  0.32525  0.04991
  -160.00  0.09871  0.33999  -0.01799
  -150.00  0.08871  0.36251  -0.00796
  -140.00  0.08234  0.39000  -0.00098
  -130.00  0.07371  0.41904  0.00579
  -120.00  0.06046  0.44594  0.01250
  -110.00  0.04284  0.46729  0.01872
  -100.00  0.02196  0.48033  0.02382
   -90.00  0.00009  0.48325  0.02717
   -80.00  -0.02179  0.48033  0.02965
   -70.00  -0.04266  0.46729  0.03010
   -60.00  -0.06029  0.44594  0.02894
   -50.00  -0.07354  0.41904  0.02691
   -40.00  -0.08216  0.39000  0.02526
   -30.00  -0.08854  0.36251  0.02625
   -20.00  -0.09829  0.33996  0.03585
   -10.00  -0.04016  0.31950  0.01580
    -4.17  -0.00891  0.30759  -0.01691
    -3.17  0.00534  0.30757  -0.01716
    -2.12  0.02009  0.30756  -0.01736
    -1.08  0.03496  0.30756  -0.01759
    -0.05  0.04971  0.30757  -0.01771
    -0.01  0.04975  0.30758  -0.01771
     1.15  0.06717  0.30760  -0.01787
     2.29  0.08358  0.30762  -0.01801
     3.44  0.10005  0.30767  -0.01810
     4.59  0.11599  0.30770  -0.01808
     5.73  0.13143  0.30775  -0.01797
     6.88  0.14607  0.30783  -0.01770
     8.03  0.15809  0.30791  -0.01696
    10.65  0.16355  0.30950  -0.01320
    13.27  0.14315  0.32056  -0.01220
    15.90  0.13824  0.32741  -0.01326
    18.52  0.14139  0.33423  -0.01492
    21.14  0.14061  0.34280  -0.01761
    23.77  0.13641  0.34870  -0.02103
    26.39  0.13221  0.35460  -0.02445
    29.01  0.12802  0.36050  -0.02787
    31.64  0.12504  0.36724  -0.03039
    34.26  0.12269  0.37442  -0.03244
    36.88  0.12034  0.38160  -0.03449
    39.51  0.11799  0.38878  -0.03654
    42.13  0.11491  0.39629  -0.03830
    44.75  0.11168  0.40387  -0.03999
    47.38  0.10844  0.41146  -0.04169
    50.00  0.10521  0.41904  -0.04339
    60.00  0.08634  0.44594  -0.04917
    70.00  0.06109  0.46729  -0.05421
    80.00  0.03134  0.48033  -0.05835
    90.00  0.00009  0.48325  -0.06132
   100.00  -0.02179  0.48033  -0.06379
   110.00  -0.04266  0.46729  -0.06425
   120.00  -0.06029  0.44594  -0.06308
   130.00  -0.07354  0.41904  -0.06106
   140.00  -0.08216  0.39000  -0.05940
   150.00  -0.08854  0.36251  -0.06039
   160.00  -0.09854  0.33999  -0.07009
   170.00  -0.04916  0.32525  -0.06259
   180.00  0.00009  0.32011  -0.00009
EOT
