AeroDyn airfoil file.  Compatible with AeroDyn v13.0.
Interpolated thickness: 0.795

  1        Number of airfoil tables in this file
  9990     Reynolds number in millions.  For efficiency, make very large if only one table.
  0        Control setting
  10.6806  Stall angle (deg)
  -3.03452 Zero lift angle of attack (deg)
  2.04288  Cn slope for zero lift (dimensionless)
  0.489013 Cn at stall value for positive angle of attack
  -0.8     Cn at stall value for negative angle of attack
  -2.12    Angle of attack for minimum CD (deg)
  0.258424 Minimum CD value
  -180.00  0.00007  0.28551  -0.00007
  -170.00  0.10635  0.29659  0.10782
  -160.00  0.21290  0.32839  -0.03870
  -150.00  0.19132  0.37700  -0.01707
  -140.00  0.17756  0.43632  -0.00199
  -130.00  0.15895  0.49898  0.01260
  -120.00  0.13036  0.55702  0.02709
  -110.00  0.09232  0.60309  0.04052
  -100.00  0.04728  0.63123  0.05153
   -90.00  0.00007  0.63754  0.05876
   -80.00  -0.04713  0.63123  0.06410
   -70.00  -0.09218  0.60309  0.06507
   -60.00  -0.13021  0.55702  0.06256
   -50.00  -0.15880  0.49898  0.05819
   -40.00  -0.17741  0.43632  0.05463
   -30.00  -0.19117  0.37700  0.05676
   -20.00  -0.21221  0.32834  0.07748
   -10.00  -0.08678  0.28418  0.03421
    -4.17  -0.01935  0.25848  -0.03638
    -3.17  0.01140  0.25845  -0.03692
    -2.12  0.04323  0.25842  -0.03735
    -1.08  0.07533  0.25842  -0.03784
    -0.05  0.10716  0.25845  -0.03811
    -0.01  0.10723  0.25845  -0.03811
     1.15  0.14483  0.25851  -0.03845
     2.30  0.18025  0.25856  -0.03875
     3.45  0.21578  0.25865  -0.03895
     4.61  0.25019  0.25873  -0.03890
     5.76  0.28350  0.25883  -0.03866
     6.91  0.31509  0.25900  -0.03808
     8.06  0.34102  0.25918  -0.03649
    10.68  0.35281  0.26260  -0.02837
    13.30  0.30880  0.28647  -0.02621
    15.92  0.29819  0.30125  -0.02851
    18.54  0.30499  0.31597  -0.03207
    21.17  0.30330  0.33445  -0.03788
    23.79  0.29425  0.34719  -0.04527
    26.41  0.28519  0.35992  -0.05265
    29.03  0.27613  0.37266  -0.06003
    31.65  0.26970  0.38721  -0.06546
    34.27  0.26463  0.40270  -0.06988
    36.89  0.25956  0.41819  -0.07431
    39.51  0.25449  0.43368  -0.07873
    42.14  0.24784  0.44989  -0.08252
    44.76  0.24087  0.46625  -0.08618
    47.38  0.23389  0.48261  -0.08985
    50.00  0.22692  0.49898  -0.09351
    60.00  0.18619  0.55702  -0.10600
    70.00  0.13170  0.60309  -0.11687
    80.00  0.06751  0.63123  -0.12580
    90.00  0.00007  0.63754  -0.13222
   100.00  -0.04713  0.63123  -0.13753
   110.00  -0.09218  0.60309  -0.13853
   120.00  -0.13021  0.55702  -0.13599
   130.00  -0.15880  0.49898  -0.13165
   140.00  -0.17741  0.43632  -0.12806
   150.00  -0.19117  0.37700  -0.13019
   160.00  -0.21275  0.32839  -0.15113
   170.00  -0.10620  0.29659  -0.13494
   180.00  0.00007  0.28551  -0.00007
EOT
