AeroDyn airfoil file.  Compatible with AeroDyn v13.0.
Interpolated thickness: 0.463

  1        Number of airfoil tables in this file
  9990     Reynolds number in millions.  For efficiency, make very large if only one table.
  0        Control setting
  10.7707  Stall angle (deg)
  -3.46333 Zero lift angle of attack (deg)
  4.70515  Cn slope for zero lift (dimensionless)
  1.16891  Cn at stall value for positive angle of attack
  -0.8     Cn at stall value for negative angle of attack
  -2.12    Angle of attack for minimum CD (deg)
  0.110116 Minimum CD value
  -180.00  0.00003  0.18106  -0.00003
  -170.00  0.27842  0.21010  0.28260
  -160.00  0.55752  0.29340  -0.10121
  -150.00  0.50099  0.42073  -0.04454
  -140.00  0.46496  0.57611  -0.00505
  -130.00  0.41620  0.74024  0.03318
  -120.00  0.34131  0.89230  0.07112
  -110.00  0.24168  1.01298  0.10631
  -100.00  0.12368  1.08668  0.13514
   -90.00  0.00003  1.10321  0.15408
   -80.00  -0.12362  1.08668  0.16807
   -70.00  -0.24162  1.01298  0.17061
   -60.00  -0.34125  0.89230  0.16404
   -50.00  -0.41615  0.74024  0.15259
   -40.00  -0.46490  0.57611  0.14326
   -30.00  -0.50094  0.42073  0.14885
   -20.00  -0.55605  0.29326  0.20311
   -10.00  -0.22749  0.17759  0.08978
    -4.17  -0.05084  0.11026  -0.09513
    -3.17  0.02971  0.11019  -0.09655
    -2.12  0.11308  0.11012  -0.09768
    -1.08  0.19716  0.11012  -0.09895
    -0.05  0.28054  0.11019  -0.09966
    -0.03  0.28073  0.11019  -0.09966
     1.17  0.37923  0.11034  -0.10057
     2.33  0.47200  0.11047  -0.10134
     3.50  0.56507  0.11071  -0.10187
     4.66  0.65521  0.11091  -0.10174
     5.83  0.74247  0.11117  -0.10111
     6.99  0.82521  0.11161  -0.09959
     8.16  0.89315  0.11209  -0.09542
    10.77  0.92402  0.12105  -0.07416
    13.39  0.80874  0.18359  -0.06850
    16.00  0.78095  0.22230  -0.07451
    18.62  0.79877  0.26087  -0.08386
    21.23  0.79434  0.30927  -0.09908
    23.85  0.77062  0.34263  -0.11841
    26.46  0.74689  0.37600  -0.13775
    29.08  0.72317  0.40936  -0.15708
    31.69  0.70633  0.44747  -0.17131
    34.31  0.69305  0.48805  -0.18290
    36.92  0.67976  0.52862  -0.19448
    39.54  0.66648  0.56919  -0.20607
    42.15  0.64906  0.61166  -0.21601
    44.77  0.63079  0.65452  -0.22560
    47.38  0.61253  0.69738  -0.23519
    50.00  0.59426  0.74024  -0.24479
    60.00  0.48757  0.89230  -0.27750
    70.00  0.34484  1.01298  -0.30598
    80.00  0.17667  1.08668  -0.32937
    90.00  0.00003  1.10321  -0.34618
   100.00  -0.12362  1.08668  -0.36010
   110.00  -0.24162  1.01298  -0.36272
   120.00  -0.34125  0.89230  -0.35607
   130.00  -0.41615  0.74024  -0.34470
   140.00  -0.46490  0.57611  -0.33530
   150.00  -0.50094  0.42073  -0.34088
   160.00  -0.55746  0.29340  -0.39571
   170.00  -0.27836  0.21010  -0.35332
   180.00  0.00003  0.18106  -0.00003
EOT
