AeroDyn airfoil file.  Compatible with AeroDyn v13.0.
Interpolated thickness: 0.657

  1        Number of airfoil tables in this file
  9990     Reynolds number in millions.  For efficiency, make very large if only one table.
  0        Control setting
  10.7181  Stall angle (deg)
  -3.28542 Zero lift angle of attack (deg)
  3.16125  Cn slope for zero lift (dimensionless)
  0.772633 Cn at stall value for positive angle of attack
  -0.8     Cn at stall value for negative angle of attack
  -2.12    Angle of attack for minimum CD (deg)
  0.196778 Minimum CD value
  -180.00  0.00005  0.24209  -0.00005
  -170.00  0.17787  0.26064  0.18047
  -160.00  0.35614  0.31385  -0.06468
  -150.00  0.32004  0.39518  -0.02849
  -140.00  0.29702  0.49442  -0.00326
  -130.00  0.26588  0.59926  0.02116
  -120.00  0.21804  0.69638  0.04539
  -110.00  0.15440  0.77347  0.06787
  -100.00  0.07904  0.82054  0.08628
   -90.00  0.00005  0.83110  0.09838
   -80.00  -0.07893  0.82054  0.10731
   -70.00  -0.15430  0.77347  0.10894
   -60.00  -0.21793  0.69638  0.10474
   -50.00  -0.26577  0.59926  0.09743
   -40.00  -0.29691  0.49442  0.09147
   -30.00  -0.31993  0.39518  0.09504
   -20.00  -0.35513  0.31376  0.12970
   -10.00  -0.14527  0.23988  0.05731
    -4.17  -0.03244  0.19687  -0.06080
    -3.17  0.01901  0.19682  -0.06170
    -2.12  0.07227  0.19678  -0.06243
    -1.08  0.12597  0.19678  -0.06324
    -0.05  0.17923  0.19682  -0.06369
    -0.02  0.17935  0.19682  -0.06369
     1.16  0.24226  0.19692  -0.06427
     2.31  0.30152  0.19700  -0.06477
     3.47  0.36096  0.19716  -0.06511
     4.63  0.41854  0.19728  -0.06502
     5.79  0.47428  0.19745  -0.06462
     6.94  0.52712  0.19773  -0.06365
     8.10  0.57052  0.19804  -0.06098
    10.72  0.59024  0.20376  -0.04741
    13.34  0.51660  0.24371  -0.04379
    15.96  0.49885  0.26844  -0.04763
    18.57  0.51024  0.29307  -0.05360
    21.19  0.50741  0.32399  -0.06332
    23.81  0.49226  0.34530  -0.07567
    26.43  0.47710  0.36660  -0.08802
    29.05  0.46195  0.38791  -0.10037
    31.67  0.45119  0.41226  -0.10946
    34.29  0.44271  0.43817  -0.11686
    36.91  0.43422  0.46409  -0.12426
    39.52  0.42574  0.49000  -0.13166
    42.14  0.41461  0.51713  -0.13801
    44.76  0.40295  0.54451  -0.14413
    47.38  0.39128  0.57189  -0.15026
    50.00  0.37961  0.59926  -0.15639
    60.00  0.31146  0.69638  -0.17729
    70.00  0.22030  0.77347  -0.19547
    80.00  0.11288  0.82054  -0.21041
    90.00  0.00005  0.83110  -0.22115
   100.00  -0.07893  0.82054  -0.23005
   110.00  -0.15430  0.77347  -0.23172
   120.00  -0.21793  0.69638  -0.22747
   130.00  -0.26577  0.59926  -0.22021
   140.00  -0.29691  0.49442  -0.21420
   150.00  -0.31993  0.39518  -0.21777
   160.00  -0.35603  0.31385  -0.25279
   170.00  -0.17776  0.26064  -0.22571
   180.00  0.00005  0.24209  -0.00005
EOT
