AeroDyn airfoil file.  Compatible with AeroDyn v13.0.
Interpolated thickness: 0.714

  1        Number of airfoil tables in this file
  9990     Reynolds number in millions.  For efficiency, make very large if only one table.
  0        Control setting
  10.7026  Stall angle (deg)
  -3.20392 Zero lift angle of attack (deg)
  2.70137  Cn slope for zero lift (dimensionless)
  0.655663 Cn at stall value for positive angle of attack
  -0.8     Cn at stall value for negative angle of attack
  -2.12    Angle of attack for minimum CD (deg)
  0.222241 Minimum CD value
  -180.00  0.00006  0.26002  -0.00006
  -170.00  0.14833  0.27549  0.15046
  -160.00  0.29698  0.31986  -0.05395
  -150.00  0.26687  0.38767  -0.02377
  -140.00  0.24768  0.47042  -0.00273
  -130.00  0.22171  0.55784  0.01762
  -120.00  0.18182  0.63882  0.03783
  -110.00  0.12876  0.70310  0.05657
  -100.00  0.06592  0.74235  0.07193
   -90.00  0.00006  0.75115  0.08201
   -80.00  -0.06579  0.74235  0.08946
   -70.00  -0.12864  0.70310  0.09082
   -60.00  -0.18170  0.63882  0.08732
   -50.00  -0.22159  0.55784  0.08122
   -40.00  -0.24755  0.47042  0.07625
   -30.00  -0.26675  0.38767  0.07923
   -20.00  -0.29610  0.31978  0.10813
   -10.00  -0.12111  0.25818  0.04777
    -4.17  -0.02703  0.22232  -0.05071
    -3.17  0.01587  0.22228  -0.05147
    -2.12  0.06027  0.22224  -0.05207
    -1.08  0.10505  0.22224  -0.05275
    -0.05  0.14946  0.22228  -0.05312
    -0.02  0.14956  0.22228  -0.05312
     1.15  0.20202  0.22236  -0.05361
     2.31  0.25143  0.22243  -0.05402
     3.46  0.30099  0.22255  -0.05430
     4.62  0.34900  0.22266  -0.05423
     5.77  0.39548  0.22280  -0.05389
     6.93  0.43954  0.22304  -0.05309
     8.08  0.47573  0.22329  -0.05087
    10.70  0.49217  0.22806  -0.03954
    13.32  0.43077  0.26137  -0.03653
    15.94  0.41597  0.28199  -0.03973
    18.56  0.42546  0.30253  -0.04471
    21.18  0.42310  0.32831  -0.05281
    23.80  0.41047  0.34608  -0.06311
    26.42  0.39783  0.36385  -0.07341
    29.04  0.38520  0.38161  -0.08371
    31.66  0.37623  0.40191  -0.09128
    34.28  0.36916  0.42352  -0.09746
    36.90  0.36208  0.44513  -0.10363
    39.52  0.35500  0.46674  -0.10980
    42.14  0.34573  0.48936  -0.11509
    44.76  0.33600  0.51219  -0.12020
    47.38  0.32627  0.53501  -0.12531
    50.00  0.31654  0.55784  -0.13042
    60.00  0.25972  0.63882  -0.14784
    70.00  0.18370  0.70310  -0.16301
    80.00  0.09414  0.74235  -0.17546
    90.00  0.00006  0.75115  -0.18442
   100.00  -0.06579  0.74235  -0.19183
   110.00  -0.12864  0.70310  -0.19323
   120.00  -0.18170  0.63882  -0.18969
   130.00  -0.22159  0.55784  -0.18363
   140.00  -0.24755  0.47042  -0.17862
   150.00  -0.26675  0.38767  -0.18160
   160.00  -0.29685  0.31986  -0.21080
   170.00  -0.14821  0.27549  -0.18822
   180.00  0.00006  0.26002  -0.00006
EOT
