AeroDyn airfoil file.  Compatible with AeroDyn v13.0.
Interpolated thickness: 0.991

  1        Number of airfoil tables in this file
  9990     Reynolds number in millions.  For efficiency, make very large if only one table.
  0        Control setting
  10.6274  Stall angle (deg)
  -0.664496 Zero lift angle of attack (deg)
  0.423344 Cn slope for zero lift (dimensionless)
  0.0834333 Cn at stall value for positive angle of attack
  -0.8     Cn at stall value for negative angle of attack
  -2.12    Angle of attack for minimum CD (deg)
  0.34598  Minimum CD value
  -180.00  0.00010  0.34717  -0.00010
  -170.00  0.00476  0.34766  0.00464
  -160.00  0.00944  0.34905  -0.00179
  -150.00  0.00849  0.35119  -0.00084
  -140.00  0.00789  0.35379  -0.00018
  -130.00  0.00707  0.35654  0.00046
  -120.00  0.00582  0.35909  0.00109
  -110.00  0.00415  0.36111  0.00168
  -100.00  0.00217  0.36235  0.00217
   -90.00  0.00010  0.36262  0.00248
   -80.00  -0.00197  0.36235  0.00272
   -70.00  -0.00395  0.36111  0.00276
   -60.00  -0.00562  0.35909  0.00265
   -50.00  -0.00688  0.35654  0.00246
   -40.00  -0.00769  0.35379  0.00230
   -30.00  -0.00830  0.35119  0.00240
   -20.00  -0.00922  0.34905  0.00331
   -10.00  -0.00371  0.34711  0.00141
    -4.17  -0.00075  0.34598  -0.00169
    -3.17  0.00060  0.34598  -0.00172
    -2.12  0.00199  0.34598  -0.00174
    -1.08  0.00340  0.34598  -0.00176
    -0.05  0.00480  0.34598  -0.00177
    -0.00  0.00480  0.34598  -0.00177
     1.14  0.00645  0.34598  -0.00178
     2.29  0.00801  0.34599  -0.00180
     3.43  0.00957  0.34599  -0.00181
     4.57  0.01108  0.34599  -0.00180
     5.72  0.01254  0.34600  -0.00179
     6.86  0.01393  0.34600  -0.00177
     8.00  0.01507  0.34601  -0.00170
    10.63  0.01558  0.34616  -0.00134
    13.25  0.01365  0.34721  -0.00125
    15.88  0.01319  0.34786  -0.00135
    18.50  0.01349  0.34851  -0.00150
    21.13  0.01341  0.34932  -0.00176
    23.75  0.01301  0.34988  -0.00208
    26.38  0.01262  0.35044  -0.00241
    29.00  0.01222  0.35099  -0.00273
    31.63  0.01194  0.35163  -0.00297
    34.25  0.01171  0.35231  -0.00316
    36.88  0.01149  0.35299  -0.00336
    39.50  0.01127  0.35367  -0.00355
    42.13  0.01098  0.35439  -0.00372
    44.75  0.01067  0.35510  -0.00388
    47.38  0.01036  0.35582  -0.00404
    50.00  0.01006  0.35654  -0.00420
    60.00  0.00827  0.35909  -0.00475
    70.00  0.00588  0.36111  -0.00523
    80.00  0.00306  0.36235  -0.00562
    90.00  0.00010  0.36262  -0.00590
   100.00  -0.00197  0.36235  -0.00613
   110.00  -0.00395  0.36111  -0.00618
   120.00  -0.00562  0.35909  -0.00607
   130.00  -0.00688  0.35654  -0.00588
   140.00  -0.00769  0.35379  -0.00572
   150.00  -0.00830  0.35119  -0.00581
   160.00  -0.00924  0.34905  -0.00673
   170.00  -0.00457  0.34766  -0.00602
   180.00  0.00010  0.34717  -0.00010
EOT
