AeroDyn airfoil file.  Compatible with AeroDyn v13.0.
Interpolated thickness: 0.869

  1        Number of airfoil tables in this file
  9990     Reynolds number in millions.  For efficiency, make very large if only one table.
  0        Control setting
  10.6606  Stall angle (deg)
  -2.8319  Zero lift angle of attack (deg)
  1.41669  Cn slope for zero lift (dimensionless)
  0.333613 Cn at stall value for positive angle of attack
  -0.8     Cn at stall value for negative angle of attack
  -2.12    Angle of attack for minimum CD (deg)
  0.291481 Minimum CD value
  -180.00  0.00008  0.30879  -0.00008
  -170.00  0.06800  0.31587  0.06886
  -160.00  0.13608  0.33619  -0.02477
  -150.00  0.12229  0.36725  -0.01094
  -140.00  0.11350  0.40516  -0.00131
  -130.00  0.10161  0.44520  0.00802
  -120.00  0.08334  0.48229  0.01727
  -110.00  0.05903  0.51173  0.02586
  -100.00  0.03025  0.52971  0.03289
   -90.00  0.00008  0.53374  0.03751
   -80.00  -0.03008  0.52971  0.04092
   -70.00  -0.05887  0.51173  0.04154
   -60.00  -0.08317  0.48229  0.03994
   -50.00  -0.10144  0.44520  0.03715
   -40.00  -0.11334  0.40516  0.03487
   -30.00  -0.12213  0.36725  0.03624
   -20.00  -0.13557  0.33616  0.04947
   -10.00  -0.05542  0.30794  0.02183
    -4.17  -0.01233  0.29152  -0.02328
    -3.17  0.00732  0.29150  -0.02363
    -2.12  0.02766  0.29148  -0.02390
    -1.08  0.04817  0.29148  -0.02421
    -0.05  0.06851  0.29150  -0.02439
    -0.01  0.06856  0.29150  -0.02439
     1.15  0.09259  0.29154  -0.02461
     2.30  0.11522  0.29157  -0.02480
     3.44  0.13792  0.29162  -0.02493
     4.59  0.15991  0.29167  -0.02489
     5.74  0.18120  0.29174  -0.02474
     6.89  0.20138  0.29185  -0.02437
     8.04  0.21796  0.29196  -0.02335
    10.66  0.22549  0.29415  -0.01817
    13.28  0.19736  0.30940  -0.01679
    15.91  0.19059  0.31885  -0.01825
    18.53  0.19493  0.32826  -0.02053
    21.15  0.19385  0.34006  -0.02425
    23.77  0.18807  0.34820  -0.02896
    26.40  0.18228  0.35634  -0.03368
    29.02  0.17649  0.36448  -0.03840
    31.64  0.17238  0.37378  -0.04187
    34.26  0.16914  0.38368  -0.04469
    36.89  0.16590  0.39357  -0.04752
    39.51  0.16266  0.40347  -0.05035
    42.13  0.15841  0.41383  -0.05277
    44.75  0.15396  0.42429  -0.05511
    47.38  0.14950  0.43474  -0.05745
    50.00  0.14504  0.44520  -0.05979
    60.00  0.11902  0.48229  -0.06777
    70.00  0.08420  0.51173  -0.07472
    80.00  0.04317  0.52971  -0.08042
    90.00  0.00008  0.53374  -0.08453
   100.00  -0.03008  0.52971  -0.08792
   110.00  -0.05887  0.51173  -0.08856
   120.00  -0.08317  0.48229  -0.08694
   130.00  -0.10144  0.44520  -0.08416
   140.00  -0.11334  0.40516  -0.08187
   150.00  -0.12213  0.36725  -0.08323
   160.00  -0.13592  0.33619  -0.09661
   170.00  -0.06783  0.31587  -0.08627
   180.00  0.00008  0.30879  -0.00008
EOT
