AeroDyn airfoil file.  Compatible with AeroDyn v13.0.
Interpolated thickness: 0.677

  1        Number of airfoil tables in this file
  9990     Reynolds number in millions.  For efficiency, make very large if only one table.
  0        Control setting
  10.7127  Stall angle (deg)
  -3.25922 Zero lift angle of attack (deg)
  3.00022  Cn slope for zero lift (dimensionless)
  0.731619 Cn at stall value for positive angle of attack
  -0.8     Cn at stall value for negative angle of attack
  -2.12    Angle of attack for minimum CD (deg)
  0.205713 Minimum CD value
  -180.00  0.00006  0.24838  -0.00006
  -170.00  0.16751  0.26585  0.16994
  -160.00  0.33538  0.31596  -0.06092
  -150.00  0.30138  0.39254  -0.02683
  -140.00  0.27971  0.48600  -0.00307
  -130.00  0.25038  0.58473  0.01992
  -120.00  0.20533  0.67619  0.04274
  -110.00  0.14541  0.74878  0.06390
  -100.00  0.07443  0.79310  0.08124
   -90.00  0.00006  0.80305  0.09263
   -80.00  -0.07432  0.79310  0.10105
   -70.00  -0.14529  0.74878  0.10258
   -60.00  -0.20522  0.67619  0.09863
   -50.00  -0.25027  0.58473  0.09174
   -40.00  -0.27959  0.48600  0.08613
   -30.00  -0.30127  0.39254  0.08949
   -20.00  -0.33442  0.31587  0.12213
   -10.00  -0.13679  0.24630  0.05396
    -4.17  -0.03054  0.20580  -0.05726
    -3.17  0.01791  0.20576  -0.05811
    -2.12  0.06806  0.20571  -0.05879
    -1.08  0.11863  0.20571  -0.05956
    -0.05  0.16878  0.20576  -0.05998
    -0.02  0.16890  0.20576  -0.05998
     1.16  0.22814  0.20585  -0.06053
     2.31  0.28394  0.20592  -0.06100
     3.47  0.33992  0.20607  -0.06131
     4.62  0.39414  0.20619  -0.06123
     5.78  0.44663  0.20635  -0.06085
     6.94  0.49639  0.20661  -0.05994
     8.09  0.53726  0.20690  -0.05743
    10.71  0.55583  0.21229  -0.04465
    13.33  0.48649  0.24990  -0.04124
    15.95  0.46977  0.27319  -0.04486
    18.57  0.48049  0.29639  -0.05048
    21.19  0.47783  0.32550  -0.05963
    23.81  0.46356  0.34557  -0.07126
    26.43  0.44929  0.36564  -0.08289
    29.05  0.43502  0.38570  -0.09452
    31.67  0.42489  0.40863  -0.10308
    34.29  0.41690  0.43303  -0.11005
    36.90  0.40891  0.45744  -0.11702
    39.52  0.40092  0.48184  -0.12399
    42.14  0.39044  0.50739  -0.12996
    44.76  0.37946  0.53317  -0.13574
    47.38  0.36847  0.55895  -0.14151
    50.00  0.35748  0.58473  -0.14728
    60.00  0.29331  0.67619  -0.16695
    70.00  0.20746  0.74878  -0.18408
    80.00  0.10631  0.79310  -0.19815
    90.00  0.00006  0.80305  -0.20826
   100.00  -0.07432  0.79310  -0.21664
   110.00  -0.14529  0.74878  -0.21821
   120.00  -0.20522  0.67619  -0.21421
   130.00  -0.25027  0.58473  -0.20737
   140.00  -0.27959  0.48600  -0.20172
   150.00  -0.30127  0.39254  -0.20508
   160.00  -0.33527  0.31596  -0.23806
   170.00  -0.16739  0.26585  -0.21256
   180.00  0.00006  0.24838  -0.00006
EOT
