AeroDyn airfoil file.  Compatible with AeroDyn v13.0.
Interpolated thickness: 0.887

  1        Number of airfoil tables in this file
  9990     Reynolds number in millions.  For efficiency, make very large if only one table.
  0        Control setting
  10.6557  Stall angle (deg)
  -2.72406 Zero lift angle of attack (deg)
  1.27072  Cn slope for zero lift (dimensionless)
  0.296738 Cn at stall value for positive angle of attack
  -0.8     Cn at stall value for negative angle of attack
  -2.12    Angle of attack for minimum CD (deg)
  0.299522 Minimum CD value
  -180.00  0.00009  0.31445  -0.00009
  -170.00  0.05867  0.32056  0.05939
  -160.00  0.11740  0.33809  -0.02138
  -150.00  0.10550  0.36488  -0.00945
  -140.00  0.09792  0.39758  -0.00114
  -130.00  0.08766  0.43212  0.00690
  -120.00  0.07190  0.46412  0.01489
  -110.00  0.05094  0.48951  0.02229
  -100.00  0.02610  0.50502  0.02836
   -90.00  0.00009  0.50850  0.03234
   -80.00  -0.02593  0.50502  0.03529
   -70.00  -0.05076  0.48951  0.03582
   -60.00  -0.07173  0.46412  0.03444
   -50.00  -0.08749  0.43212  0.03203
   -40.00  -0.09775  0.39758  0.03007
   -30.00  -0.10533  0.36488  0.03124
   -20.00  -0.11693  0.33806  0.04266
   -10.00  -0.04779  0.31372  0.01881
    -4.17  -0.01062  0.29955  -0.02010
    -3.17  0.00633  0.29954  -0.02040
    -2.12  0.02387  0.29952  -0.02063
    -1.08  0.04157  0.29952  -0.02090
    -0.05  0.05911  0.29954  -0.02105
    -0.01  0.05915  0.29954  -0.02105
     1.15  0.07988  0.29957  -0.02124
     2.30  0.09940  0.29960  -0.02140
     3.44  0.11898  0.29965  -0.02152
     4.59  0.13795  0.29969  -0.02149
     5.74  0.15632  0.29974  -0.02135
     6.89  0.17373  0.29984  -0.02104
     8.03  0.18802  0.29994  -0.02016
    10.66  0.19452  0.30182  -0.01568
    13.28  0.17026  0.31498  -0.01449
    15.90  0.16441  0.32313  -0.01576
    18.52  0.16816  0.33124  -0.01772
    21.15  0.16723  0.34143  -0.02093
    23.77  0.16224  0.34845  -0.02500
    26.39  0.15725  0.35547  -0.02906
    29.02  0.15225  0.36249  -0.03313
    31.64  0.14871  0.37051  -0.03613
    34.26  0.14592  0.37905  -0.03857
    36.89  0.14312  0.38759  -0.04100
    39.51  0.14032  0.39612  -0.04344
    42.13  0.13666  0.40506  -0.04553
    44.75  0.13282  0.41408  -0.04755
    47.38  0.12897  0.42310  -0.04957
    50.00  0.12513  0.43212  -0.05159
    60.00  0.10268  0.46412  -0.05847
    70.00  0.07264  0.48951  -0.06447
    80.00  0.03726  0.50502  -0.06939
    90.00  0.00009  0.50850  -0.07293
   100.00  -0.02593  0.50502  -0.07585
   110.00  -0.05076  0.48951  -0.07640
   120.00  -0.07173  0.46412  -0.07501
   130.00  -0.08749  0.43212  -0.07261
   140.00  -0.09775  0.39758  -0.07064
   150.00  -0.10533  0.36488  -0.07181
   160.00  -0.11723  0.33809  -0.08335
   170.00  -0.05850  0.32056  -0.07443
   180.00  0.00009  0.31445  -0.00009
EOT
