AeroDyn airfoil file.  Compatible with AeroDyn v13.0.
Interpolated thickness: 0.737

  1        Number of airfoil tables in this file
  9990     Reynolds number in millions.  For efficiency, make very large if only one table.
  0        Control setting
  10.6964  Stall angle (deg)
  -3.16389 Zero lift angle of attack (deg)
  2.51499  Cn slope for zero lift (dimensionless)
  0.608394 Cn at stall value for positive angle of attack
  -0.8     Cn at stall value for negative angle of attack
  -2.12    Angle of attack for minimum CD (deg)
  0.232515 Minimum CD value
  -180.00  0.00007  0.26726  -0.00007
  -170.00  0.13641  0.28148  0.13836
  -160.00  0.27310  0.32228  -0.04962
  -150.00  0.24542  0.38464  -0.02187
  -140.00  0.22777  0.46074  -0.00252
  -130.00  0.20389  0.54112  0.01620
  -120.00  0.16721  0.61560  0.03478
  -110.00  0.11842  0.67470  0.05202
  -100.00  0.06062  0.71079  0.06613
   -90.00  0.00007  0.71889  0.07541
   -80.00  -0.06049  0.71079  0.08226
   -70.00  -0.11828  0.67470  0.08351
   -60.00  -0.16708  0.61560  0.08029
   -50.00  -0.20376  0.54112  0.07468
   -40.00  -0.22764  0.46074  0.07011
   -30.00  -0.24529  0.38464  0.07285
   -20.00  -0.27228  0.32221  0.09942
   -10.00  -0.11136  0.26556  0.04392
    -4.17  -0.02485  0.23258  -0.04664
    -3.17  0.01460  0.23255  -0.04734
    -2.12  0.05543  0.23252  -0.04789
    -1.08  0.09661  0.23252  -0.04851
    -0.05  0.13745  0.23255  -0.04886
    -0.02  0.13754  0.23255  -0.04886
     1.15  0.18578  0.23263  -0.04930
     2.31  0.23122  0.23269  -0.04968
     3.46  0.27680  0.23280  -0.04994
     4.61  0.32094  0.23290  -0.04988
     5.77  0.36368  0.23303  -0.04957
     6.92  0.40420  0.23325  -0.04883
     8.08  0.43748  0.23348  -0.04678
    10.70  0.45260  0.23787  -0.03637
    13.32  0.39614  0.26850  -0.03360
    15.94  0.38253  0.28746  -0.03654
    18.56  0.39126  0.30635  -0.04112
    21.18  0.38908  0.33005  -0.04857
    23.80  0.37747  0.34639  -0.05804
    26.42  0.36585  0.36273  -0.06751
    29.04  0.35423  0.37907  -0.07698
    31.66  0.34598  0.39774  -0.08395
    34.28  0.33948  0.41761  -0.08963
    36.90  0.33297  0.43748  -0.09530
    39.52  0.32646  0.45735  -0.10098
    42.14  0.31793  0.47815  -0.10584
    44.76  0.30899  0.49914  -0.11054
    47.38  0.30004  0.52013  -0.11524
    50.00  0.29110  0.54112  -0.11994
    60.00  0.23884  0.61560  -0.13596
    70.00  0.16894  0.67470  -0.14991
    80.00  0.08658  0.71079  -0.16136
    90.00  0.00007  0.71889  -0.16960
   100.00  -0.06049  0.71079  -0.17641
   110.00  -0.11828  0.67470  -0.17769
   120.00  -0.16708  0.61560  -0.17444
   130.00  -0.20376  0.54112  -0.16887
   140.00  -0.22764  0.46074  -0.16427
   150.00  -0.24529  0.38464  -0.16700
   160.00  -0.27297  0.32228  -0.19385
   170.00  -0.13628  0.28148  -0.17309
   180.00  0.00007  0.26726  -0.00007
EOT
