AeroDyn airfoil file.  Compatible with AeroDyn v13.0.
Interpolated thickness: 0.172

  1        Number of airfoil tables in this file
  9990     Reynolds number in millions.  For efficiency, make very large if only one table.
  0        Control setting
  13.3275  Stall angle (deg)
  -5.50459 Zero lift angle of attack (deg)
  6.088    Cn slope for zero lift (dimensionless)
  2.00102  Cn at stall value for positive angle of attack
  -0.8     Cn at stall value for negative angle of attack
  -4.09    Angle of attack for minimum CD (deg)
  0.00671691 Minimum CD value
  -180.00  0.00000  0.18871  0.00000
  -170.00  0.40080  0.22855  0.40000
  -160.00  0.80260  0.34295  -0.13776
  -150.00  0.71094  0.51742  -0.06193
  -140.00  0.65994  0.72955  -0.00691
  -130.00  0.58997  0.95223  0.04632
  -120.00  0.48397  1.15636  0.09817
  -110.00  0.34200  1.31492  0.14467
  -100.00  0.17500  1.40610  0.18110
   -90.00  0.00000  1.41600  0.20256
   -80.00  -0.17500  1.40610  0.22362
   -70.00  -0.34200  1.31492  0.22868
   -60.00  -0.48397  1.15636  0.22054
   -50.00  -0.58997  0.95223  0.20493
   -40.00  -0.65994  0.72955  0.19114
   -30.00  -0.71094  0.51742  0.19642
   -20.00  -0.80157  0.34265  0.27011
   -10.00  -0.26566  0.10474  0.05385
    -6.04  -0.07526  0.01060  -0.14308
    -5.04  0.04642  0.00732  -0.15456
    -4.09  0.15072  0.00672  -0.15802
    -3.02  0.26591  0.00681  -0.15924
    -2.02  0.37210  0.00691  -0.15987
    -1.03  0.47734  0.00700  -0.16030
    -0.00  0.58546  0.00720  -0.16130
     0.69  0.66066  0.00740  -0.16083
     1.39  0.73436  0.00767  -0.16100
     2.08  0.80675  0.00801  -0.16178
     2.77  0.87881  0.00833  -0.16119
     3.47  0.95015  0.00864  -0.16061
     4.16  1.02017  0.00893  -0.15997
     6.45  1.19821  0.01276  -0.15005
     8.74  1.34813  0.01871  -0.13807
    11.04  1.48461  0.02694  -0.12715
    13.33  1.53000  0.05729  -0.11698
    15.62  1.33695  0.19844  -0.13117
    17.91  1.24538  0.27383  -0.13949
    20.20  1.14551  0.34642  -0.17256
    22.50  1.11519  0.38643  -0.19491
    24.79  1.08486  0.42645  -0.21725
    27.08  1.05454  0.46647  -0.23960
    29.37  1.02441  0.50662  -0.26180
    31.66  1.00375  0.55275  -0.27805
    33.96  0.98702  0.60137  -0.29184
    36.25  0.97030  0.64998  -0.30564
    38.54  0.95357  0.69860  -0.31943
    40.83  0.93452  0.74810  -0.33237
    43.12  0.91138  0.79913  -0.34385
    45.42  0.88825  0.85016  -0.35532
    47.71  0.86511  0.90120  -0.36679
    50.00  0.84197  0.95223  -0.37826
    60.00  0.69097  1.15636  -0.42184
    70.00  0.48897  1.31492  -0.45855
    80.00  0.25000  1.40610  -0.48699
    90.00  0.00000  1.41600  -0.50544
   100.00  -0.17500  1.40610  -0.52650
   110.00  -0.34200  1.31492  -0.53156
   120.00  -0.48397  1.15636  -0.52343
   130.00  -0.58997  0.95223  -0.50781
   140.00  -0.65994  0.72955  -0.49403
   150.00  -0.71094  0.51742  -0.49930
   160.00  -0.80260  0.34295  -0.57331
   170.00  -0.40080  0.22855  -0.50000
   180.00  0.00000  0.18871  0.00000
EOT
