AeroDyn airfoil file.  Compatible with AeroDyn v13.0.
Interpolated thickness: 0.461

  1        Number of airfoil tables in this file
  9990     Reynolds number in millions.  For efficiency, make very large if only one table.
  0        Control setting
  10.7713  Stall angle (deg)
  -3.46471 Zero lift angle of attack (deg)
  4.72089  Cn slope for zero lift (dimensionless)
  1.17298  Cn at stall value for positive angle of attack
  -0.8     Cn at stall value for negative angle of attack
  -2.12    Angle of attack for minimum CD (deg)
  0.109223 Minimum CD value
  -180.00  0.00003  0.18043  -0.00003
  -170.00  0.27946  0.20958  0.28366
  -160.00  0.55960  0.29319  -0.10159
  -150.00  0.50286  0.42099  -0.04471
  -140.00  0.46669  0.57695  -0.00506
  -130.00  0.41775  0.74170  0.03330
  -120.00  0.34258  0.89432  0.07139
  -110.00  0.24258  1.01545  0.10671
  -100.00  0.12414  1.08942  0.13564
   -90.00  0.00003  1.10602  0.15465
   -80.00  -0.12408  1.08942  0.16869
   -70.00  -0.24252  1.01545  0.17125
   -60.00  -0.34252  0.89432  0.16465
   -50.00  -0.41770  0.74170  0.15316
   -40.00  -0.46663  0.57695  0.14380
   -30.00  -0.50280  0.42099  0.14940
   -20.00  -0.55812  0.29305  0.20387
   -10.00  -0.22834  0.17695  0.09011
    -4.17  -0.05103  0.10936  -0.09549
    -3.17  0.02982  0.10929  -0.09691
    -2.12  0.11350  0.10922  -0.09804
    -1.08  0.19790  0.10922  -0.09932
    -0.05  0.28159  0.10929  -0.10003
    -0.03  0.28178  0.10929  -0.10003
     1.17  0.38064  0.10945  -0.10094
     2.33  0.47376  0.10957  -0.10172
     3.50  0.56717  0.10982  -0.10225
     4.66  0.65765  0.11002  -0.10212
     5.83  0.74524  0.11028  -0.10148
     6.99  0.82828  0.11072  -0.09996
     8.16  0.89647  0.11121  -0.09577
    10.77  0.92746  0.12019  -0.07444
    13.39  0.81175  0.18297  -0.06875
    16.00  0.78386  0.22183  -0.07479
    18.62  0.80175  0.26053  -0.08417
    21.23  0.79730  0.30912  -0.09945
    23.85  0.77349  0.34261  -0.11885
    26.46  0.74968  0.37609  -0.13826
    29.08  0.72587  0.40958  -0.15767
    31.69  0.70896  0.44784  -0.17195
    34.31  0.69563  0.48856  -0.18358
    36.92  0.68229  0.52928  -0.19521
    39.54  0.66896  0.57001  -0.20684
    42.15  0.65148  0.61264  -0.21681
    44.77  0.63314  0.65566  -0.22644
    47.38  0.61481  0.69868  -0.23607
    50.00  0.59648  0.74170  -0.24570
    60.00  0.48938  0.89432  -0.27854
    70.00  0.34612  1.01545  -0.30712
    80.00  0.17733  1.08942  -0.33059
    90.00  0.00003  1.10602  -0.34747
   100.00  -0.12408  1.08942  -0.36144
   110.00  -0.24252  1.01545  -0.36407
   120.00  -0.34252  0.89432  -0.35740
   130.00  -0.41770  0.74170  -0.34598
   140.00  -0.46663  0.57695  -0.33655
   150.00  -0.50280  0.42099  -0.34215
   160.00  -0.55954  0.29319  -0.39719
   170.00  -0.27940  0.20958  -0.35463
   180.00  0.00003  0.18043  -0.00003
EOT
