AeroDyn airfoil file.  Compatible with AeroDyn v13.0.
Interpolated thickness: 0.3

  1        Number of airfoil tables in this file
  9990     Reynolds number in millions.  For efficiency, make very large if only one table.
  0        Control setting
  10.815   Stall angle (deg)
  -3.56034 Zero lift angle of attack (deg)
  5.97735  Cn slope for zero lift (dimensionless)
  1.4997   Cn at stall value for positive angle of attack
  -0.8     Cn at stall value for negative angle of attack
  -2.12    Angle of attack for minimum CD (deg)
  0.0373026 Minimum CD value
  -180.00  0.00001  0.12978  -0.00001
  -170.00  0.36290  0.16763  0.36841
  -160.00  0.72672  0.27622  -0.13190
  -150.00  0.65303  0.44220  -0.05803
  -140.00  0.60606  0.64474  -0.00655
  -130.00  0.54251  0.85870  0.04328
  -120.00  0.44488  1.05691  0.09274
  -110.00  0.31501  1.21422  0.13861
  -100.00  0.16119  1.31029  0.17619
   -90.00  0.00001  1.33184  0.20087
   -80.00  -0.16118  1.31029  0.21911
   -70.00  -0.31499  1.21422  0.22243
   -60.00  -0.44486  1.05691  0.21386
   -50.00  -0.54249  0.85870  0.19894
   -40.00  -0.60604  0.64474  0.18678
   -30.00  -0.65302  0.44220  0.19406
   -20.00  -0.72486  0.27604  0.26479
   -10.00  -0.29657  0.12526  0.11706
    -4.17  -0.06631  0.03749  -0.12398
    -3.17  0.03869  0.03739  -0.12582
    -2.12  0.14738  0.03730  -0.12730
    -1.08  0.25698  0.03730  -0.12896
    -0.05  0.36567  0.03739  -0.12988
    -0.04  0.36592  0.03740  -0.12988
     1.17  0.49431  0.03760  -0.13106
     2.34  0.61524  0.03776  -0.13207
     3.52  0.73655  0.03807  -0.13276
     4.69  0.85405  0.03833  -0.13259
     5.86  0.96781  0.03867  -0.13176
     7.03  1.07566  0.03925  -0.12979
     8.20  1.16422  0.03988  -0.12435
    10.81  1.20447  0.05155  -0.09664
    13.43  1.05419  0.13307  -0.08926
    16.04  1.01796  0.18354  -0.09710
    18.65  1.04120  0.23381  -0.10928
    21.26  1.03542  0.29691  -0.12912
    23.88  1.00450  0.34040  -0.15432
    26.49  0.97358  0.38389  -0.17953
    29.10  0.94265  0.42738  -0.20473
    31.71  0.92070  0.47706  -0.22328
    34.33  0.90338  0.52995  -0.23838
    36.94  0.88607  0.58284  -0.25349
    39.55  0.86875  0.63572  -0.26859
    42.16  0.84604  0.69109  -0.28154
    44.78  0.82223  0.74696  -0.29405
    47.39  0.79842  0.80283  -0.30655
    50.00  0.77461  0.85870  -0.31906
    60.00  0.63553  1.05691  -0.36171
    70.00  0.44948  1.21422  -0.39882
    80.00  0.23027  1.31029  -0.42931
    90.00  0.00001  1.33184  -0.45123
   100.00  -0.16118  1.31029  -0.46938
   110.00  -0.31499  1.21422  -0.47278
   120.00  -0.44486  1.05691  -0.46413
   130.00  -0.54249  0.85870  -0.44930
   140.00  -0.60604  0.64474  -0.43705
   150.00  -0.65302  0.44220  -0.44432
   160.00  -0.72670  0.27622  -0.51580
   170.00  -0.36289  0.16763  -0.46053
   180.00  0.00001  0.12978  -0.00001
EOT
