AeroDyn airfoil file.  Compatible with AeroDyn v13.0.
Interpolated thickness: 0.686

  1        Number of airfoil tables in this file
  9990     Reynolds number in millions.  For efficiency, make very large if only one table.
  0        Control setting
  10.7102  Stall angle (deg)
  -3.24665 Zero lift angle of attack (deg)
  2.92764  Cn slope for zero lift (dimensionless)
  0.713153 Cn at stall value for positive angle of attack
  -0.8     Cn at stall value for negative angle of attack
  -2.12    Angle of attack for minimum CD (deg)
  0.209733 Minimum CD value
  -180.00  0.00006  0.25121  -0.00006
  -170.00  0.16284  0.26819  0.16520
  -160.00  0.32604  0.31691  -0.05922
  -150.00  0.29299  0.39136  -0.02609
  -140.00  0.27192  0.48221  -0.00299
  -130.00  0.24341  0.57819  0.01936
  -120.00  0.19961  0.66710  0.04155
  -110.00  0.14136  0.73767  0.06212
  -100.00  0.07236  0.78076  0.07898
   -90.00  0.00006  0.79043  0.09005
   -80.00  -0.07224  0.78076  0.09823
   -70.00  -0.14124  0.73767  0.09972
   -60.00  -0.19950  0.66710  0.09588
   -50.00  -0.24329  0.57819  0.08918
   -40.00  -0.27180  0.48221  0.08373
   -30.00  -0.29287  0.39136  0.08699
   -20.00  -0.32510  0.31682  0.11872
   -10.00  -0.13298  0.24919  0.05245
    -4.17  -0.02969  0.20982  -0.05567
    -3.17  0.01741  0.20977  -0.05650
    -2.12  0.06616  0.20973  -0.05716
    -1.08  0.11533  0.20973  -0.05790
    -0.05  0.16408  0.20977  -0.05831
    -0.02  0.16420  0.20977  -0.05832
     1.16  0.22179  0.20986  -0.05885
     2.31  0.27603  0.20994  -0.05930
     3.47  0.33045  0.21008  -0.05961
     4.62  0.38316  0.21019  -0.05953
     5.78  0.43419  0.21035  -0.05916
     6.94  0.48257  0.21061  -0.05828
     8.09  0.52229  0.21089  -0.05584
    10.71  0.54034  0.21612  -0.04341
    13.33  0.47293  0.25269  -0.04010
    15.95  0.45668  0.27533  -0.04361
    18.57  0.46711  0.29788  -0.04907
    21.19  0.46452  0.32619  -0.05797
    23.81  0.45064  0.34569  -0.06928
    26.43  0.43677  0.36520  -0.08059
    29.05  0.42290  0.38471  -0.09189
    31.66  0.41305  0.40700  -0.10021
    34.28  0.40529  0.43072  -0.10699
    36.90  0.39752  0.45444  -0.11376
    39.52  0.38975  0.47817  -0.12054
    42.14  0.37957  0.50300  -0.12635
    44.76  0.36889  0.52806  -0.13196
    47.38  0.35821  0.55313  -0.13757
    50.00  0.34752  0.57819  -0.14318
    60.00  0.28514  0.66710  -0.16231
    70.00  0.20168  0.73767  -0.17896
    80.00  0.10335  0.78076  -0.19263
    90.00  0.00006  0.79043  -0.20246
   100.00  -0.07224  0.78076  -0.21060
   110.00  -0.14124  0.73767  -0.21213
   120.00  -0.19950  0.66710  -0.20825
   130.00  -0.24329  0.57819  -0.20160
   140.00  -0.27180  0.48221  -0.19610
   150.00  -0.29287  0.39136  -0.19937
   160.00  -0.32592  0.31691  -0.23143
   170.00  -0.16273  0.26819  -0.20664
   180.00  0.00006  0.25121  -0.00006
EOT
