AeroDyn airfoil file.  Compatible with AeroDyn v13.0.
Interpolated thickness: 0.747

  1        Number of airfoil tables in this file
  9990     Reynolds number in millions.  For efficiency, make very large if only one table.
  0        Control setting
  10.6937  Stall angle (deg)
  -3.14481 Zero lift angle of attack (deg)
  2.4338   Cn slope for zero lift (dimensionless)
  0.587829 Cn at stall value for positive angle of attack
  -0.8     Cn at stall value for negative angle of attack
  -2.12    Angle of attack for minimum CD (deg)
  0.236982 Minimum CD value
  -180.00  0.00007  0.27040  -0.00007
  -170.00  0.13123  0.28409  0.13309
  -160.00  0.26272  0.32334  -0.04774
  -150.00  0.23609  0.38332  -0.02104
  -140.00  0.21911  0.45653  -0.00243
  -130.00  0.19614  0.53386  0.01558
  -120.00  0.16085  0.60550  0.03346
  -110.00  0.11392  0.66236  0.05003
  -100.00  0.05832  0.69708  0.06362
   -90.00  0.00007  0.70487  0.07254
   -80.00  -0.05819  0.69708  0.07913
   -70.00  -0.11378  0.66236  0.08033
   -60.00  -0.16072  0.60550  0.07723
   -50.00  -0.19601  0.53386  0.07184
   -40.00  -0.21898  0.45653  0.06744
   -30.00  -0.23596  0.38332  0.07007
   -20.00  -0.26192  0.32327  0.09564
   -10.00  -0.10713  0.26877  0.04224
    -4.17  -0.02390  0.23705  -0.04487
    -3.17  0.01405  0.23702  -0.04554
    -2.12  0.05333  0.23698  -0.04607
    -1.08  0.09294  0.23698  -0.04667
    -0.05  0.13223  0.23702  -0.04700
    -0.02  0.13232  0.23702  -0.04701
     1.15  0.17872  0.23709  -0.04743
     2.31  0.22243  0.23715  -0.04780
     3.46  0.26628  0.23726  -0.04805
     4.61  0.30874  0.23735  -0.04799
     5.77  0.34986  0.23748  -0.04769
     6.92  0.38884  0.23769  -0.04697
     8.07  0.42085  0.23791  -0.04501
    10.69  0.43539  0.24213  -0.03499
    13.31  0.38108  0.27160  -0.03233
    15.93  0.36799  0.28984  -0.03516
    18.55  0.37638  0.30801  -0.03956
    21.18  0.37429  0.33081  -0.04673
    23.80  0.36312  0.34653  -0.05584
    26.42  0.35194  0.36225  -0.06495
    29.04  0.34077  0.37797  -0.07406
    31.66  0.33283  0.39592  -0.08076
    34.28  0.32657  0.41504  -0.08622
    36.90  0.32031  0.43415  -0.09168
    39.52  0.31405  0.45327  -0.09714
    42.14  0.30585  0.47328  -0.10182
    44.76  0.29724  0.49347  -0.10634
    47.38  0.28864  0.51366  -0.11086
    50.00  0.28003  0.53386  -0.11538
    60.00  0.22976  0.60550  -0.13079
    70.00  0.16252  0.66236  -0.14421
    80.00  0.08329  0.69708  -0.15523
    90.00  0.00007  0.70487  -0.16315
   100.00  -0.05819  0.69708  -0.16971
   110.00  -0.11378  0.66236  -0.17094
   120.00  -0.16072  0.60550  -0.16781
   130.00  -0.19601  0.53386  -0.16245
   140.00  -0.21898  0.45653  -0.15803
   150.00  -0.23596  0.38332  -0.16066
   160.00  -0.26259  0.32334  -0.18649
   170.00  -0.13109  0.28409  -0.16651
   180.00  0.00007  0.27040  -0.00007
EOT
