AeroDyn airfoil file.  Compatible with AeroDyn v13.0.
Interpolated thickness: 0.685

  1        Number of airfoil tables in this file
  9990     Reynolds number in millions.  For efficiency, make very large if only one table.
  0        Control setting
  10.7105  Stall angle (deg)
  -3.24807 Zero lift angle of attack (deg)
  2.93571  Cn slope for zero lift (dimensionless)
  0.715205 Cn at stall value for positive angle of attack
  -0.8     Cn at stall value for negative angle of attack
  -2.12    Angle of attack for minimum CD (deg)
  0.209286 Minimum CD value
  -180.00  0.00006  0.25090  -0.00006
  -170.00  0.16336  0.26793  0.16573
  -160.00  0.32708  0.31680  -0.05941
  -150.00  0.29392  0.39149  -0.02617
  -140.00  0.27278  0.48263  -0.00300
  -130.00  0.24418  0.57891  0.01942
  -120.00  0.20025  0.66811  0.04168
  -110.00  0.14181  0.73890  0.06232
  -100.00  0.07259  0.78213  0.07923
   -90.00  0.00006  0.79183  0.09034
   -80.00  -0.07247  0.78213  0.09854
   -70.00  -0.14169  0.73890  0.10004
   -60.00  -0.20013  0.66811  0.09618
   -50.00  -0.24407  0.57891  0.08947
   -40.00  -0.27267  0.48263  0.08400
   -30.00  -0.29380  0.39149  0.08727
   -20.00  -0.32613  0.31672  0.11910
   -10.00  -0.13340  0.24887  0.05262
    -4.17  -0.02978  0.20937  -0.05585
    -3.17  0.01747  0.20933  -0.05668
    -2.12  0.06637  0.20929  -0.05734
    -1.08  0.11570  0.20929  -0.05808
    -0.05  0.16460  0.20933  -0.05850
    -0.02  0.16472  0.20933  -0.05850
     1.16  0.22249  0.20942  -0.05903
     2.31  0.27691  0.20949  -0.05949
     3.47  0.33150  0.20963  -0.05980
     4.62  0.38438  0.20975  -0.05972
     5.78  0.43557  0.20990  -0.05935
     6.94  0.48410  0.21016  -0.05846
     8.09  0.52395  0.21045  -0.05601
    10.71  0.54206  0.21570  -0.04354
    13.33  0.47444  0.25238  -0.04022
    15.95  0.45814  0.27509  -0.04375
    18.57  0.46859  0.29771  -0.04923
    21.19  0.46599  0.32611  -0.05816
    23.81  0.45208  0.34568  -0.06950
    26.43  0.43816  0.36525  -0.08084
    29.05  0.42425  0.38482  -0.09218
    31.66  0.41437  0.40718  -0.10053
    34.28  0.40658  0.43098  -0.10733
    36.90  0.39878  0.45478  -0.11412
    39.52  0.39099  0.47858  -0.12092
    42.14  0.38078  0.50349  -0.12675
    44.76  0.37006  0.52863  -0.13238
    47.38  0.35935  0.55377  -0.13800
    50.00  0.34863  0.57891  -0.14363
    60.00  0.28605  0.66811  -0.16282
    70.00  0.20232  0.73890  -0.17953
    80.00  0.10368  0.78213  -0.19324
    90.00  0.00006  0.79183  -0.20311
   100.00  -0.07247  0.78213  -0.21127
   110.00  -0.14169  0.73890  -0.21281
   120.00  -0.20013  0.66811  -0.20891
   130.00  -0.24407  0.57891  -0.20224
   140.00  -0.27267  0.48263  -0.19673
   150.00  -0.29380  0.39149  -0.20000
   160.00  -0.32696  0.31680  -0.23216
   170.00  -0.16324  0.26793  -0.20730
   180.00  0.00006  0.25090  -0.00006
EOT
