AeroDyn airfoil file.  Compatible with AeroDyn v13.0.
Interpolated thickness: 0.98

  1        Number of airfoil tables in this file
  9990     Reynolds number in millions.  For efficiency, make very large if only one table.
  0        Control setting
  10.6304  Stall angle (deg)
  -1.20336 Zero lift angle of attack (deg)
  0.513291 Cn slope for zero lift (dimensionless)
  0.106014 Cn at stall value for positive angle of attack
  -0.8     Cn at stall value for negative angle of attack
  -2.12    Angle of attack for minimum CD (deg)
  0.341066 Minimum CD value
  -180.00  0.00010  0.34371  -0.00010
  -170.00  0.01047  0.34479  0.01043
  -160.00  0.02086  0.34789  -0.00387
  -150.00  0.01876  0.35263  -0.00176
  -140.00  0.01741  0.35842  -0.00028
  -130.00  0.01560  0.36453  0.00114
  -120.00  0.01281  0.37020  0.00255
  -110.00  0.00910  0.37469  0.00386
  -100.00  0.00470  0.37744  0.00494
   -90.00  0.00010  0.37805  0.00564
   -80.00  -0.00451  0.37744  0.00616
   -70.00  -0.00890  0.37469  0.00626
   -60.00  -0.01261  0.37020  0.00601
   -50.00  -0.01540  0.36453  0.00559
   -40.00  -0.01722  0.35842  0.00524
   -30.00  -0.01856  0.35263  0.00545
   -20.00  -0.02061  0.34789  0.00747
   -10.00  -0.00838  0.34358  0.00325
    -4.17  -0.00180  0.34107  -0.00364
    -3.17  0.00120  0.34107  -0.00369
    -2.12  0.00431  0.34107  -0.00373
    -1.08  0.00744  0.34107  -0.00378
    -0.05  0.01054  0.34107  -0.00381
    -0.00  0.01055  0.34107  -0.00381
     1.14  0.01422  0.34107  -0.00384
     2.29  0.01768  0.34108  -0.00387
     3.43  0.02114  0.34109  -0.00389
     4.57  0.02450  0.34110  -0.00389
     5.72  0.02775  0.34110  -0.00386
     6.86  0.03083  0.34112  -0.00381
     8.01  0.03336  0.34114  -0.00365
    10.63  0.03451  0.34147  -0.00286
    13.26  0.03022  0.34380  -0.00265
    15.88  0.02918  0.34524  -0.00287
    18.50  0.02985  0.34668  -0.00322
    21.13  0.02968  0.34848  -0.00379
    23.75  0.02880  0.34973  -0.00451
    26.38  0.02791  0.35097  -0.00523
    29.00  0.02703  0.35221  -0.00595
    31.63  0.02640  0.35363  -0.00648
    34.25  0.02591  0.35514  -0.00691
    36.88  0.02541  0.35665  -0.00734
    39.50  0.02492  0.35816  -0.00777
    42.13  0.02427  0.35975  -0.00814
    44.75  0.02359  0.36134  -0.00850
    47.38  0.02291  0.36294  -0.00886
    50.00  0.02223  0.36453  -0.00921
    60.00  0.01826  0.37020  -0.01043
    70.00  0.01294  0.37469  -0.01149
    80.00  0.00668  0.37744  -0.01236
    90.00  0.00010  0.37805  -0.01299
   100.00  -0.00451  0.37744  -0.01351
   110.00  -0.00890  0.37469  -0.01361
   120.00  -0.01261  0.37020  -0.01336
   130.00  -0.01540  0.36453  -0.01293
   140.00  -0.01722  0.35842  -0.01258
   150.00  -0.01856  0.35263  -0.01279
   160.00  -0.02067  0.34789  -0.01483
   170.00  -0.01027  0.34479  -0.01326
   180.00  0.00010  0.34371  -0.00010
EOT
