AeroDyn airfoil file.  Compatible with AeroDyn v13.0.
Interpolated thickness: 0.908

  1        Number of airfoil tables in this file
  9990     Reynolds number in millions.  For efficiency, make very large if only one table.
  0        Control setting
  10.65    Stall angle (deg)
  -2.56267 Zero lift angle of attack (deg)
  1.10016  Cn slope for zero lift (dimensionless)
  0.253701 Cn at stall value for positive angle of attack
  -0.8     Cn at stall value for negative angle of attack
  -2.12    Angle of attack for minimum CD (deg)
  0.308903 Minimum CD value
  -180.00  0.00009  0.32106  -0.00009
  -170.00  0.04778  0.32603  0.04833
  -160.00  0.09560  0.34030  -0.01742
  -150.00  0.08591  0.36212  -0.00771
  -140.00  0.07974  0.38874  -0.00095
  -130.00  0.07139  0.41686  0.00560
  -120.00  0.05856  0.44291  0.01210
  -110.00  0.04149  0.46358  0.01813
  -100.00  0.02127  0.47621  0.02307
   -90.00  0.00009  0.47904  0.02631
   -80.00  -0.02110  0.47621  0.02871
   -70.00  -0.04131  0.46358  0.02915
   -60.00  -0.05838  0.44291  0.02802
   -50.00  -0.07121  0.41686  0.02606
   -40.00  -0.07956  0.38874  0.02446
   -30.00  -0.08574  0.36212  0.02542
   -20.00  -0.09518  0.34028  0.03471
   -10.00  -0.03889  0.32046  0.01530
    -4.17  -0.00863  0.30893  -0.01638
    -3.17  0.00517  0.30891  -0.01662
    -2.12  0.01946  0.30890  -0.01682
    -1.08  0.03386  0.30890  -0.01704
    -0.05  0.04815  0.30891  -0.01716
    -0.01  0.04818  0.30891  -0.01716
     1.15  0.06505  0.30894  -0.01731
     2.29  0.08095  0.30896  -0.01744
     3.44  0.09689  0.30900  -0.01754
     4.59  0.11233  0.30904  -0.01751
     5.73  0.12728  0.30908  -0.01740
     6.88  0.14146  0.30916  -0.01715
     8.03  0.15310  0.30924  -0.01643
    10.65  0.15839  0.31078  -0.01279
    13.27  0.13864  0.32149  -0.01182
    15.90  0.13388  0.32812  -0.01285
    18.52  0.13693  0.33473  -0.01445
    21.14  0.13617  0.34302  -0.01706
    23.77  0.13211  0.34874  -0.02037
    26.39  0.12804  0.35445  -0.02368
    29.01  0.12398  0.36017  -0.02699
    31.64  0.12109  0.36670  -0.02943
    34.26  0.11882  0.37365  -0.03142
    36.88  0.11654  0.38060  -0.03340
    39.51  0.11427  0.38755  -0.03539
    42.13  0.11128  0.39483  -0.03709
    44.75  0.10815  0.40217  -0.03873
    47.38  0.10502  0.40951  -0.04038
    50.00  0.10189  0.41686  -0.04202
    60.00  0.08361  0.44291  -0.04763
    70.00  0.05916  0.46358  -0.05250
    80.00  0.03035  0.47621  -0.05651
    90.00  0.00009  0.47904  -0.05939
   100.00  -0.02110  0.47621  -0.06178
   110.00  -0.04131  0.46358  -0.06222
   120.00  -0.05838  0.44291  -0.06109
   130.00  -0.07121  0.41686  -0.05914
   140.00  -0.07956  0.38874  -0.05753
   150.00  -0.08574  0.36212  -0.05848
   160.00  -0.09542  0.34030  -0.06788
   170.00  -0.04761  0.32603  -0.06061
   180.00  0.00009  0.32106  -0.00009
EOT
