AeroDyn airfoil file.  Compatible with AeroDyn v13.0.
Interpolated thickness: 0.67

  1        Number of airfoil tables in this file
  9990     Reynolds number in millions.  For efficiency, make very large if only one table.
  0        Control setting
  10.7146  Stall angle (deg)
  -3.26865 Zero lift angle of attack (deg)
  3.05662  Cn slope for zero lift (dimensionless)
  0.745977 Cn at stall value for positive angle of attack
  -0.8     Cn at stall value for negative angle of attack
  -2.12    Angle of attack for minimum CD (deg)
  0.202586 Minimum CD value
  -180.00  0.00006  0.24618  -0.00006
  -170.00  0.17114  0.26403  0.17363
  -160.00  0.34265  0.31522  -0.06224
  -150.00  0.30791  0.39346  -0.02741
  -140.00  0.28577  0.48895  -0.00314
  -130.00  0.25581  0.58981  0.02035
  -120.00  0.20978  0.68326  0.04367
  -110.00  0.14856  0.75742  0.06529
  -100.00  0.07604  0.80271  0.08301
   -90.00  0.00006  0.81287  0.09464
   -80.00  -0.07593  0.80271  0.10324
   -70.00  -0.14844  0.75742  0.10481
   -60.00  -0.20967  0.68326  0.10077
   -50.00  -0.25569  0.58981  0.09373
   -40.00  -0.28565  0.48895  0.08800
   -30.00  -0.30780  0.39346  0.09143
   -20.00  -0.34167  0.31513  0.12478
   -10.00  -0.13976  0.24405  0.05513
    -4.17  -0.03121  0.20267  -0.05850
    -3.17  0.01829  0.20263  -0.05937
    -2.12  0.06953  0.20259  -0.06006
    -1.08  0.12120  0.20259  -0.06085
    -0.05  0.17244  0.20263  -0.06128
    -0.02  0.17256  0.20263  -0.06128
     1.16  0.23308  0.20272  -0.06184
     2.31  0.29009  0.20280  -0.06232
     3.47  0.34729  0.20295  -0.06264
     4.63  0.40268  0.20307  -0.06256
     5.78  0.45631  0.20323  -0.06217
     6.94  0.50715  0.20350  -0.06124
     8.10  0.54890  0.20380  -0.05868
    10.71  0.56787  0.20930  -0.04561
    13.33  0.49703  0.24773  -0.04213
    15.95  0.47995  0.27153  -0.04583
    18.57  0.49090  0.29523  -0.05157
    21.19  0.48818  0.32497  -0.06092
    23.81  0.47360  0.34547  -0.07281
    26.43  0.45902  0.36598  -0.08469
    29.05  0.44445  0.38648  -0.09657
    31.67  0.43410  0.40990  -0.10531
    34.29  0.42593  0.43483  -0.11243
    36.90  0.41777  0.45977  -0.11955
    39.52  0.40961  0.48470  -0.12667
    42.14  0.39890  0.51080  -0.13278
    44.76  0.38768  0.53714  -0.13868
    47.38  0.37645  0.56348  -0.14457
    50.00  0.36523  0.58981  -0.15047
    60.00  0.29966  0.68326  -0.17057
    70.00  0.21195  0.75742  -0.18807
    80.00  0.10861  0.80271  -0.20244
    90.00  0.00006  0.81287  -0.21278
   100.00  -0.07593  0.80271  -0.22133
   110.00  -0.14844  0.75742  -0.22294
   120.00  -0.20967  0.68326  -0.21886
   130.00  -0.25569  0.58981  -0.21186
   140.00  -0.28565  0.48895  -0.20609
   150.00  -0.30780  0.39346  -0.20952
   160.00  -0.34254  0.31522  -0.24321
   170.00  -0.17102  0.26403  -0.21716
   180.00  0.00006  0.24618  -0.00006
EOT
