AeroDyn airfoil file.  Compatible with AeroDyn v13.0.
Interpolated thickness: 0.534

  1        Number of airfoil tables in this file
  9990     Reynolds number in millions.  For efficiency, make very large if only one table.
  0        Control setting
  10.7515  Stall angle (deg)
  -3.40973 Zero lift angle of attack (deg)
  4.1439   Cn slope for zero lift (dimensionless)
  1.0242   Cn at stall value for positive angle of attack
  -0.8     Cn at stall value for negative angle of attack
  -2.12    Angle of attack for minimum CD (deg)
  0.141833 Minimum CD value
  -180.00  0.00004  0.20339  -0.00004
  -170.00  0.24162  0.22859  0.24522
  -160.00  0.48382  0.30089  -0.08784
  -150.00  0.43477  0.41138  -0.03867
  -140.00  0.40350  0.54621  -0.00439
  -130.00  0.36119  0.68865  0.02878
  -120.00  0.29619  0.82060  0.06171
  -110.00  0.20974  0.92533  0.09224
  -100.00  0.10734  0.98928  0.11726
   -90.00  0.00004  1.00363  0.13369
   -80.00  -0.10726  0.98928  0.14583
   -70.00  -0.20966  0.92533  0.14804
   -60.00  -0.29612  0.82060  0.14234
   -50.00  -0.36111  0.68865  0.13240
   -40.00  -0.40342  0.54621  0.12431
   -30.00  -0.43469  0.41138  0.12915
   -20.00  -0.48252  0.30076  0.17624
   -10.00  -0.19740  0.20039  0.07789
    -4.17  -0.04411  0.14196  -0.08257
    -3.17  0.02579  0.14189  -0.08380
    -2.12  0.09814  0.14183  -0.08478
    -1.08  0.17111  0.14183  -0.08588
    -0.05  0.24346  0.14189  -0.08649
    -0.03  0.24363  0.14189  -0.08650
     1.16  0.32910  0.14203  -0.08728
     2.32  0.40961  0.14214  -0.08796
     3.49  0.49037  0.14234  -0.08842
     4.65  0.56859  0.14252  -0.08830
     5.81  0.64432  0.14275  -0.08775
     6.97  0.71612  0.14313  -0.08644
     8.13  0.77507  0.14355  -0.08282
    10.75  0.80186  0.15132  -0.06437
    13.37  0.70182  0.20559  -0.05946
    15.98  0.67771  0.23919  -0.06467
    18.60  0.69317  0.27265  -0.07278
    21.22  0.68933  0.31466  -0.08599
    23.83  0.66874  0.34361  -0.10277
    26.45  0.64816  0.37256  -0.11955
    29.07  0.62757  0.40151  -0.13633
    31.68  0.61296  0.43459  -0.14867
    34.30  0.60143  0.46979  -0.15873
    36.92  0.58990  0.50500  -0.16878
    39.53  0.57837  0.54021  -0.17884
    42.15  0.56326  0.57707  -0.18746
    44.77  0.54741  0.61426  -0.19579
    47.38  0.53156  0.65145  -0.20411
    50.00  0.51570  0.68865  -0.21244
    60.00  0.42312  0.82060  -0.24083
    70.00  0.29926  0.92533  -0.26554
    80.00  0.15333  0.98928  -0.28583
    90.00  0.00004  1.00363  -0.30042
   100.00  -0.10726  0.98928  -0.31250
   110.00  -0.20966  0.92533  -0.31477
   120.00  -0.29612  0.82060  -0.30901
   130.00  -0.36111  0.68865  -0.29914
   140.00  -0.40342  0.54621  -0.29098
   150.00  -0.43469  0.41138  -0.29583
   160.00  -0.48374  0.30089  -0.34341
   170.00  -0.24155  0.22859  -0.30662
   180.00  0.00004  0.20339  -0.00004
EOT
