AeroDyn airfoil file.  Compatible with AeroDyn v13.0.
Interpolated thickness: 0.185

  1        Number of airfoil tables in this file
  9990     Reynolds number in millions.  For efficiency, make very large if only one table.
  0        Control setting
  13.9486  Stall angle (deg)
  -5.10303 Zero lift angle of attack (deg)
  6.1924   Cn slope for zero lift (dimensionless)
  2.05906  Cn at stall value for positive angle of attack
  -0.8     Cn at stall value for negative angle of attack
  -4.09    Angle of attack for minimum CD (deg)
  0.00747686 Minimum CD value
  -180.00  0.00000  0.17384  0.00000
  -170.00  0.39950  0.21391  0.40000
  -160.00  0.80000  0.32899  -0.13880
  -150.00  0.71057  0.50455  -0.06214
  -140.00  0.65957  0.71816  -0.00694
  -130.00  0.58979  0.94269  0.04645
  -120.00  0.48379  1.14893  0.09866
  -110.00  0.34200  1.30983  0.14579
  -100.00  0.17500  1.40352  0.18305
   -90.00  0.00000  1.41600  0.20553
   -80.00  -0.17500  1.40352  0.22635
   -70.00  -0.34200  1.30983  0.23113
   -60.00  -0.48379  1.14893  0.22277
   -50.00  -0.58979  0.94269  0.20704
   -40.00  -0.65957  0.71816  0.19337
   -30.00  -0.71057  0.50455  0.19915
   -20.00  -0.79879  0.32871  0.27344
   -10.00  -0.27643  0.10498  0.06786
    -6.04  -0.08997  0.01646  -0.12541
    -5.04  0.01665  0.01068  -0.14328
    -4.09  0.10988  0.00748  -0.15357
    -3.02  0.22633  0.00753  -0.15496
    -2.02  0.33374  0.00759  -0.15576
    -1.03  0.44051  0.00767  -0.15643
    -0.01  0.54949  0.00785  -0.15742
     0.82  0.64113  0.00806  -0.15732
     1.65  0.73008  0.00833  -0.15769
     2.47  0.81791  0.00868  -0.15843
     3.29  0.90384  0.00900  -0.15778
     4.11  0.98810  0.00938  -0.15692
     4.94  1.06679  0.00976  -0.15519
     7.19  1.21884  0.01451  -0.14245
     9.44  1.31440  0.02959  -0.12975
    11.70  1.41589  0.04789  -0.12188
    13.95  1.44767  0.08211  -0.11506
    16.20  1.29747  0.20330  -0.12877
    18.45  1.22349  0.27557  -0.13857
    20.71  1.13758  0.34150  -0.16951
    22.96  1.10792  0.38109  -0.19177
    25.21  1.07826  0.42067  -0.21403
    27.47  1.04859  0.46026  -0.23629
    29.72  1.02039  0.50085  -0.25746
    31.97  1.00080  0.54695  -0.27312
    34.23  0.98440  0.59505  -0.28678
    36.48  0.96799  0.64316  -0.30045
    38.73  0.95159  0.69126  -0.31411
    40.99  0.93246  0.74047  -0.32675
    43.24  0.90979  0.79102  -0.33810
    45.49  0.88712  0.84158  -0.34946
    47.75  0.86445  0.89213  -0.36082
    50.00  0.84179  0.94269  -0.37217
    60.00  0.69079  1.14893  -0.41627
    70.00  0.48879  1.30983  -0.45366
    80.00  0.25000  1.40352  -0.48299
    90.00  0.00000  1.41600  -0.50247
   100.00  -0.17500  1.40352  -0.52327
   110.00  -0.34200  1.30983  -0.52807
   120.00  -0.48379  1.14893  -0.51969
   130.00  -0.58979  0.94269  -0.50399
   140.00  -0.65957  0.71816  -0.49029
   150.00  -0.71057  0.50455  -0.49607
   160.00  -0.80000  0.32899  -0.57076
   170.00  -0.39950  0.21391  -0.50000
   180.00  0.00000  0.17384  0.00000
EOT
