AeroDyn airfoil file.  Compatible with AeroDyn v13.0.
Interpolated thickness: 0.987

  1        Number of airfoil tables in this file
  9990     Reynolds number in millions.  For efficiency, make very large if only one table.
  0        Control setting
  10.6285  Stall angle (deg)
  -0.885023 Zero lift angle of attack (deg)
  0.456061 Cn slope for zero lift (dimensionless)
  0.0916451 Cn at stall value for positive angle of attack
  -0.8     Cn at stall value for negative angle of attack
  -2.12    Angle of attack for minimum CD (deg)
  0.344193 Minimum CD value
  -180.00  0.00010  0.34591  -0.00010
  -170.00  0.00684  0.34661  0.00674
  -160.00  0.01359  0.34863  -0.00255
  -150.00  0.01223  0.35171  -0.00118
  -140.00  0.01135  0.35547  -0.00022
  -130.00  0.01017  0.35945  0.00071
  -120.00  0.00836  0.36313  0.00162
  -110.00  0.00595  0.36605  0.00248
  -100.00  0.00309  0.36783  0.00317
   -90.00  0.00010  0.36823  0.00363
   -80.00  -0.00290  0.36783  0.00397
   -70.00  -0.00575  0.36605  0.00403
   -60.00  -0.00816  0.36313  0.00387
   -50.00  -0.00998  0.35945  0.00360
   -40.00  -0.01116  0.35547  0.00337
   -30.00  -0.01203  0.35171  0.00351
   -20.00  -0.01336  0.34863  0.00482
   -10.00  -0.00541  0.34583  0.00208
    -4.17  -0.00113  0.34420  -0.00240
    -3.17  0.00082  0.34419  -0.00243
    -2.12  0.00284  0.34419  -0.00246
    -1.08  0.00487  0.34419  -0.00249
    -0.05  0.00689  0.34419  -0.00251
    -0.00  0.00689  0.34419  -0.00251
     1.14  0.00928  0.34420  -0.00253
     2.29  0.01152  0.34420  -0.00255
     3.43  0.01378  0.34421  -0.00256
     4.57  0.01596  0.34421  -0.00256
     5.72  0.01807  0.34422  -0.00255
     6.86  0.02007  0.34423  -0.00251
     8.00  0.02172  0.34424  -0.00241
    10.63  0.02247  0.34446  -0.00189
    13.25  0.01968  0.34597  -0.00176
    15.88  0.01900  0.34691  -0.00190
    18.50  0.01943  0.34784  -0.00213
    21.13  0.01933  0.34901  -0.00250
    23.75  0.01875  0.34982  -0.00296
    26.38  0.01818  0.35063  -0.00343
    29.00  0.01760  0.35144  -0.00390
    31.63  0.01720  0.35236  -0.00424
    34.25  0.01688  0.35334  -0.00453
    36.88  0.01655  0.35432  -0.00481
    39.50  0.01623  0.35531  -0.00509
    42.13  0.01581  0.35633  -0.00533
    44.75  0.01537  0.35737  -0.00556
    47.38  0.01493  0.35841  -0.00579
    50.00  0.01448  0.35945  -0.00602
    60.00  0.01190  0.36313  -0.00682
    70.00  0.00845  0.36605  -0.00750
    80.00  0.00437  0.36783  -0.00807
    90.00  0.00010  0.36823  -0.00848
   100.00  -0.00290  0.36783  -0.00882
   110.00  -0.00575  0.36605  -0.00888
   120.00  -0.00816  0.36313  -0.00872
   130.00  -0.00998  0.35945  -0.00844
   140.00  -0.01116  0.35547  -0.00821
   150.00  -0.01203  0.35171  -0.00835
   160.00  -0.01340  0.34863  -0.00968
   170.00  -0.00664  0.34661  -0.00865
   180.00  0.00010  0.34591  -0.00010
EOT
