AeroDyn airfoil file.  Compatible with AeroDyn v13.0.
Interpolated thickness: 0.405

  1        Number of airfoil tables in this file
  9990     Reynolds number in millions.  For efficiency, make very large if only one table.
  0        Control setting
  10.7865  Stall angle (deg)
  -3.50116 Zero lift angle of attack (deg)
  5.16042  Cn slope for zero lift (dimensionless)
  1.28683  Cn at stall value for positive angle of attack
  -0.8     Cn at stall value for negative angle of attack
  -2.12    Angle of attack for minimum CD (deg)
  0.0842072 Minimum CD value
  -180.00  0.00002  0.16281  -0.00002
  -170.00  0.30848  0.19499  0.31314
  -160.00  0.61773  0.28729  -0.11213
  -150.00  0.55509  0.42837  -0.04934
  -140.00  0.51517  0.60053  -0.00558
  -130.00  0.46115  0.78239  0.03677
  -120.00  0.37816  0.95087  0.07882
  -110.00  0.26777  1.08459  0.11780
  -100.00  0.13703  1.16625  0.14975
   -90.00  0.00002  1.18457  0.17073
   -80.00  -0.13698  1.16625  0.18623
   -70.00  -0.26773  1.08459  0.18905
   -60.00  -0.37812  0.95087  0.18177
   -50.00  -0.46110  0.78239  0.16908
   -40.00  -0.51512  0.60053  0.15875
   -30.00  -0.55505  0.42837  0.16493
   -20.00  -0.61612  0.28713  0.22506
   -10.00  -0.25207  0.15897  0.09948
    -4.17  -0.05635  0.08436  -0.10540
    -3.17  0.03290  0.08429  -0.10697
    -2.12  0.12528  0.08421  -0.10822
    -1.08  0.21845  0.08421  -0.10963
    -0.05  0.31083  0.08429  -0.11041
    -0.04  0.31105  0.08429  -0.11041
     1.17  0.42018  0.08446  -0.11142
     2.33  0.52297  0.08459  -0.11228
     3.50  0.62609  0.08486  -0.11286
     4.67  0.72596  0.08508  -0.11272
     5.84  0.82265  0.08537  -0.11201
     7.00  0.91433  0.08586  -0.11034
     8.17  0.98960  0.08640  -0.10571
    10.79  1.02381  0.09632  -0.08216
    13.40  0.89607  0.16561  -0.07589
    16.01  0.86528  0.20851  -0.08255
    18.63  0.88503  0.25124  -0.09290
    21.24  0.88012  0.30487  -0.10977
    23.86  0.85384  0.34184  -0.13119
    26.47  0.82755  0.37880  -0.15261
    29.09  0.80127  0.41577  -0.17404
    31.70  0.78261  0.45800  -0.18980
    34.31  0.76789  0.50296  -0.20264
    36.93  0.75317  0.54791  -0.21548
    39.54  0.73845  0.59287  -0.22832
    42.16  0.71915  0.63992  -0.23932
    44.77  0.69891  0.68741  -0.24996
    47.39  0.67868  0.73490  -0.26059
    50.00  0.65844  0.78239  -0.27122
    60.00  0.54022  0.95087  -0.30746
    70.00  0.38207  1.08459  -0.33902
    80.00  0.19575  1.16625  -0.36493
    90.00  0.00002  1.18457  -0.38356
   100.00  -0.13698  1.16625  -0.39898
   110.00  -0.26773  1.08459  -0.40188
   120.00  -0.37812  0.95087  -0.39452
   130.00  -0.46110  0.78239  -0.38192
   140.00  -0.51512  0.60053  -0.37151
   150.00  -0.55505  0.42837  -0.37769
   160.00  -0.61768  0.28729  -0.43844
   170.00  -0.30844  0.19499  -0.39147
   180.00  0.00002  0.16281  -0.00002
EOT
