AeroDyn airfoil file.  Compatible with AeroDyn v13.0.
Interpolated thickness: 0.865

  1        Number of airfoil tables in this file
  9990     Reynolds number in millions.  For efficiency, make very large if only one table.
  0        Control setting
  10.6616  Stall angle (deg)
  -2.85297 Zero lift angle of attack (deg)
  1.4491   Cn slope for zero lift (dimensionless)
  0.341806 Cn at stall value for positive angle of attack
  -0.8     Cn at stall value for negative angle of attack
  -2.12    Angle of attack for minimum CD (deg)
  0.289694 Minimum CD value
  -180.00  0.00008  0.30753  -0.00008
  -170.00  0.07007  0.31483  0.07097
  -160.00  0.14023  0.33577  -0.02552
  -150.00  0.12602  0.36778  -0.01127
  -140.00  0.11696  0.40684  -0.00134
  -130.00  0.10471  0.44811  0.00827
  -120.00  0.08588  0.48633  0.01781
  -110.00  0.06083  0.51667  0.02665
  -100.00  0.03117  0.53520  0.03390
   -90.00  0.00008  0.53936  0.03866
   -80.00  -0.03100  0.53520  0.04218
   -70.00  -0.06067  0.51667  0.04282
   -60.00  -0.08571  0.48633  0.04116
   -50.00  -0.10454  0.44811  0.03829
   -40.00  -0.11680  0.40684  0.03594
   -30.00  -0.12586  0.36778  0.03734
   -20.00  -0.13971  0.33574  0.05099
   -10.00  -0.05712  0.30666  0.02249
    -4.17  -0.01271  0.28973  -0.02399
    -3.17  0.00754  0.28971  -0.02435
    -2.12  0.02850  0.28969  -0.02463
    -1.08  0.04964  0.28969  -0.02495
    -0.05  0.07060  0.28971  -0.02513
    -0.01  0.07065  0.28971  -0.02513
     1.15  0.09541  0.28975  -0.02536
     2.30  0.11873  0.28978  -0.02555
     3.45  0.14213  0.28984  -0.02569
     4.59  0.16479  0.28989  -0.02565
     5.74  0.18673  0.28996  -0.02549
     6.89  0.20753  0.29007  -0.02511
     8.04  0.22461  0.29019  -0.02406
    10.66  0.23237  0.29244  -0.01872
    13.28  0.20339  0.30816  -0.01730
    15.91  0.19640  0.31790  -0.01881
    18.53  0.20088  0.32759  -0.02116
    21.15  0.19977  0.33976  -0.02498
    23.77  0.19381  0.34815  -0.02984
    26.40  0.18784  0.35654  -0.03470
    29.02  0.18188  0.36492  -0.03956
    31.64  0.17764  0.37450  -0.04314
    34.26  0.17430  0.38470  -0.04605
    36.89  0.17096  0.39490  -0.04897
    39.51  0.16763  0.40510  -0.05188
    42.13  0.16325  0.41578  -0.05438
    44.75  0.15865  0.42656  -0.05679
    47.38  0.15406  0.43733  -0.05920
    50.00  0.14947  0.44811  -0.06161
    60.00  0.12265  0.48633  -0.06984
    70.00  0.08677  0.51667  -0.07700
    80.00  0.04449  0.53520  -0.08288
    90.00  0.00008  0.53936  -0.08710
   100.00  -0.03100  0.53520  -0.09060
   110.00  -0.06067  0.51667  -0.09126
   120.00  -0.08571  0.48633  -0.08959
   130.00  -0.10454  0.44811  -0.08673
   140.00  -0.11680  0.40684  -0.08437
   150.00  -0.12586  0.36778  -0.08577
   160.00  -0.14007  0.33577  -0.09956
   170.00  -0.06990  0.31483  -0.08890
   180.00  0.00008  0.30753  -0.00008
EOT
