AeroDyn airfoil file.  Compatible with AeroDyn v13.0.
Interpolated thickness: 0.32

  1        Number of airfoil tables in this file
  9990     Reynolds number in millions.  For efficiency, make very large if only one table.
  0        Control setting
  10.8095  Stall angle (deg)
  -3.54981 Zero lift angle of attack (deg)
  5.82246  Cn slope for zero lift (dimensionless)
  1.45921  Cn at stall value for positive angle of attack
  -0.8     Cn at stall value for negative angle of attack
  -2.12    Angle of attack for minimum CD (deg)
  0.0462368 Minimum CD value
  -180.00  0.00001  0.13607  -0.00001
  -170.00  0.35254  0.17284  0.35788
  -160.00  0.70596  0.27833  -0.12814
  -150.00  0.63438  0.43956  -0.05638
  -140.00  0.58875  0.63632  -0.00636
  -130.00  0.52701  0.84416  0.04204
  -120.00  0.43217  1.03671  0.09009
  -110.00  0.30601  1.18953  0.13465
  -100.00  0.15659  1.28285  0.17115
   -90.00  0.00001  1.30379  0.19513
   -80.00  -0.15657  1.28285  0.21285
   -70.00  -0.30599  1.18953  0.21607
   -60.00  -0.43215  1.03671  0.20775
   -50.00  -0.52699  0.84416  0.19325
   -40.00  -0.58873  0.63632  0.18144
   -30.00  -0.63436  0.43956  0.18851
   -20.00  -0.70415  0.27815  0.25723
   -10.00  -0.28809  0.13168  0.11371
    -4.17  -0.06441  0.04642  -0.12044
    -3.17  0.03759  0.04633  -0.12223
    -2.12  0.14317  0.04624  -0.12366
    -1.08  0.24964  0.04624  -0.12527
    -0.05  0.35522  0.04633  -0.12617
    -0.04  0.35547  0.04633  -0.12617
     1.17  0.48019  0.04652  -0.12732
     2.34  0.59766  0.04668  -0.12830
     3.51  0.71551  0.04698  -0.12897
     4.68  0.82966  0.04724  -0.12880
     5.85  0.94016  0.04757  -0.12800
     7.03  1.04493  0.04813  -0.12609
     8.20  1.13096  0.04874  -0.12080
    10.81  1.17006  0.06008  -0.09388
    13.42  1.02407  0.13927  -0.08671
    16.03  0.98888  0.18830  -0.09433
    18.65  1.01145  0.23713  -0.10616
    21.26  1.00584  0.29843  -0.12543
    23.87  0.97580  0.34067  -0.14992
    26.49  0.94576  0.38292  -0.17440
    29.10  0.91572  0.42516  -0.19889
    31.71  0.89440  0.47343  -0.21690
    34.32  0.87757  0.52481  -0.23158
    36.94  0.86075  0.57618  -0.24625
    39.55  0.84393  0.62756  -0.26092
    42.16  0.82187  0.68134  -0.27350
    44.77  0.79874  0.73561  -0.28565
    47.39  0.77561  0.78989  -0.29780
    50.00  0.75248  0.84416  -0.30995
    60.00  0.61738  1.03671  -0.35137
    70.00  0.43664  1.18953  -0.38743
    80.00  0.22369  1.28285  -0.41705
    90.00  0.00001  1.30379  -0.43834
   100.00  -0.15657  1.28285  -0.45597
   110.00  -0.30599  1.18953  -0.45928
   120.00  -0.43215  1.03671  -0.45087
   130.00  -0.52699  0.84416  -0.43646
   140.00  -0.58873  0.63632  -0.42456
   150.00  -0.63436  0.43956  -0.43163
   160.00  -0.70594  0.27833  -0.50106
   170.00  -0.35252  0.17284  -0.44738
   180.00  0.00001  0.13607  -0.00001
EOT
