AeroDyn airfoil file.  Compatible with AeroDyn v13.0.
Interpolated thickness: 0.191

  1        Number of airfoil tables in this file
  9990     Reynolds number in millions.  For efficiency, make very large if only one table.
  0        Control setting
  14.2352  Stall angle (deg)
  -4.92199 Zero lift angle of attack (deg)
  6.23214  Cn slope for zero lift (dimensionless)
  2.08376  Cn at stall value for positive angle of attack
  -0.8     Cn at stall value for negative angle of attack
  -4.09    Angle of attack for minimum CD (deg)
  0.0078276 Minimum CD value
  -180.00  0.00000  0.16697  0.00000
  -170.00  0.39890  0.20716  0.40000
  -160.00  0.79880  0.32254  -0.13928
  -150.00  0.71040  0.49861  -0.06223
  -140.00  0.65940  0.71291  -0.00696
  -130.00  0.58970  0.93828  0.04651
  -120.00  0.48370  1.14550  0.09888
  -110.00  0.34200  1.30748  0.14630
  -100.00  0.17500  1.40233  0.18395
   -90.00  0.00000  1.41600  0.20690
   -80.00  -0.17500  1.40233  0.22761
   -70.00  -0.34200  1.30748  0.23226
   -60.00  -0.48370  1.14550  0.22380
   -50.00  -0.58970  0.93828  0.20802
   -40.00  -0.65940  0.71291  0.19440
   -30.00  -0.71040  0.49861  0.20041
   -20.00  -0.79750  0.32227  0.27497
   -10.00  -0.28140  0.10509  0.07432
    -6.04  -0.09676  0.01917  -0.11726
    -5.04  0.00291  0.01224  -0.13807
    -4.09  0.09104  0.00783  -0.15152
    -3.02  0.20806  0.00787  -0.15298
    -2.02  0.31603  0.00791  -0.15386
    -1.03  0.42352  0.00798  -0.15464
    -0.01  0.53288  0.00815  -0.15563
     0.88  0.63212  0.00836  -0.15570
     1.76  0.72811  0.00863  -0.15617
     2.65  0.82306  0.00898  -0.15689
     3.53  0.91539  0.00931  -0.15621
     4.41  1.00561  0.00972  -0.15522
     5.29  1.08830  0.01015  -0.15299
     7.53  1.22837  0.01531  -0.13894
     9.76  1.29883  0.03462  -0.12592
    12.00  1.38417  0.05757  -0.11944
    14.24  1.40967  0.09356  -0.11417
    16.47  1.27924  0.20554  -0.12767
    18.71  1.21338  0.27637  -0.13815
    20.94  1.13392  0.33923  -0.16810
    23.18  1.10456  0.37862  -0.19032
    25.41  1.07521  0.41801  -0.21254
    27.65  1.04585  0.45740  -0.23476
    29.88  1.01853  0.49819  -0.25546
    32.12  0.99944  0.54427  -0.27084
    34.35  0.98319  0.59214  -0.28445
    36.59  0.96693  0.64001  -0.29805
    38.82  0.95068  0.68787  -0.31165
    41.06  0.93150  0.73695  -0.32415
    43.29  0.90905  0.78728  -0.33545
    45.53  0.88660  0.83761  -0.34676
    47.76  0.86415  0.88795  -0.35806
    50.00  0.84170  0.93828  -0.36936
    60.00  0.69070  1.14550  -0.41370
    70.00  0.48870  1.30748  -0.45141
    80.00  0.25000  1.40233  -0.48115
    90.00  0.00000  1.41600  -0.50110
   100.00  -0.17500  1.40233  -0.52178
   110.00  -0.34200  1.30748  -0.52646
   120.00  -0.48370  1.14550  -0.51797
   130.00  -0.58970  0.93828  -0.50222
   140.00  -0.65940  0.71291  -0.48857
   150.00  -0.71040  0.49861  -0.49458
   160.00  -0.79880  0.32254  -0.56959
   170.00  -0.39890  0.20716  -0.50000
   180.00  0.00000  0.16697  0.00000
EOT
