AeroDyn airfoil file.  Compatible with AeroDyn v13.0.
Interpolated thickness: 0.462

  1        Number of airfoil tables in this file
  9990     Reynolds number in millions.  For efficiency, make very large if only one table.
  0        Control setting
  10.771   Stall angle (deg)
  -3.46402 Zero lift angle of attack (deg)
  4.71302  Cn slope for zero lift (dimensionless)
  1.17094  Cn at stall value for positive angle of attack
  -0.8     Cn at stall value for negative angle of attack
  -2.12    Angle of attack for minimum CD (deg)
  0.10967  Minimum CD value
  -180.00  0.00003  0.18074  -0.00003
  -170.00  0.27894  0.20984  0.28313
  -160.00  0.55856  0.29330  -0.10140
  -150.00  0.50193  0.42086  -0.04463
  -140.00  0.46582  0.57653  -0.00506
  -130.00  0.41698  0.74097  0.03324
  -120.00  0.34194  0.89331  0.07126
  -110.00  0.24213  1.01422  0.10651
  -100.00  0.12391  1.08805  0.13539
   -90.00  0.00003  1.10462  0.15436
   -80.00  -0.12385  1.08805  0.16838
   -70.00  -0.24207  1.01422  0.17093
   -60.00  -0.34188  0.89331  0.16434
   -50.00  -0.41692  0.74097  0.15288
   -40.00  -0.46577  0.57653  0.14353
   -30.00  -0.50187  0.42086  0.14912
   -20.00  -0.55708  0.29316  0.20349
   -10.00  -0.22791  0.17727  0.08994
    -4.17  -0.05094  0.10981  -0.09531
    -3.17  0.02976  0.10974  -0.09673
    -2.12  0.11329  0.10967  -0.09786
    -1.08  0.19753  0.10967  -0.09913
    -0.05  0.28106  0.10974  -0.09984
    -0.03  0.28126  0.10974  -0.09984
     1.17  0.37994  0.10990  -0.10075
     2.33  0.47288  0.11002  -0.10153
     3.50  0.56612  0.11026  -0.10206
     4.66  0.65643  0.11046  -0.10193
     5.83  0.74385  0.11072  -0.10129
     6.99  0.82675  0.11117  -0.09978
     8.16  0.89481  0.11165  -0.09560
    10.77  0.92574  0.12062  -0.07430
    13.39  0.81024  0.18328  -0.06863
    16.00  0.78240  0.22207  -0.07465
    18.62  0.80026  0.26070  -0.08401
    21.23  0.79582  0.30920  -0.09926
    23.85  0.77205  0.34262  -0.11863
    26.46  0.74829  0.37604  -0.13800
    29.08  0.72452  0.40947  -0.15738
    31.69  0.70765  0.44765  -0.17163
    34.31  0.69434  0.48830  -0.18324
    36.92  0.68103  0.52895  -0.19485
    39.54  0.66772  0.56960  -0.20646
    42.15  0.65027  0.61215  -0.21641
    44.77  0.63197  0.65509  -0.22602
    47.38  0.61367  0.69803  -0.23563
    50.00  0.59537  0.74097  -0.24524
    60.00  0.48848  0.89331  -0.27802
    70.00  0.34548  1.01422  -0.30655
    80.00  0.17700  1.08805  -0.32998
    90.00  0.00003  1.10462  -0.34683
   100.00  -0.12385  1.08805  -0.36077
   110.00  -0.24207  1.01422  -0.36339
   120.00  -0.34188  0.89331  -0.35674
   130.00  -0.41692  0.74097  -0.34534
   140.00  -0.46577  0.57653  -0.33593
   150.00  -0.50187  0.42086  -0.34152
   160.00  -0.55850  0.29330  -0.39645
   170.00  -0.27888  0.20984  -0.35398
   180.00  0.00003  0.18074  -0.00003
EOT
