AeroDyn airfoil file.  Compatible with AeroDyn v13.0.
Interpolated thickness: 0.208

  1        Number of airfoil tables in this file
  9990     Reynolds number in millions.  For efficiency, make very large if only one table.
  0        Control setting
  8.49369  Stall angle (deg)
  -4.42464 Zero lift angle of attack (deg)
  6.33453  Cn slope for zero lift (dimensionless)
  1.42823  Cn at stall value for positive angle of attack
  -0.8     Cn at stall value for negative angle of attack
  -2.02    Angle of attack for minimum CD (deg)
  0.00880857 Minimum CD value
  -180.00  0.00000  0.14752  0.00000
  -170.00  0.39720  0.18802  0.40000
  -160.00  0.79540  0.30428  -0.14064
  -150.00  0.70991  0.48178  -0.06250
  -140.00  0.65891  0.69802  -0.00701
  -130.00  0.58946  0.92580  0.04668
  -120.00  0.48346  1.13579  0.09951
  -110.00  0.34200  1.30083  0.14776
  -100.00  0.17500  1.39895  0.18650
   -90.00  0.00000  1.41600  0.21079
   -80.00  -0.17500  1.39895  0.23118
   -70.00  -0.34200  1.30083  0.23547
   -60.00  -0.48346  1.13579  0.22671
   -50.00  -0.58946  0.92580  0.21079
   -40.00  -0.65891  0.69802  0.19731
   -30.00  -0.70991  0.48178  0.20398
   -20.00  -0.79386  0.30403  0.27932
   -10.00  -0.29549  0.10541  0.09263
    -6.04  -0.11599  0.02684  -0.09415
    -5.04  -0.03602  0.01664  -0.12332
    -4.09  0.03764  0.00882  -0.14570
    -3.02  0.15629  0.00881  -0.14738
    -2.02  0.26587  0.00881  -0.14849
    -1.03  0.37537  0.00886  -0.14958
    -0.03  0.48583  0.00900  -0.15056
     1.05  0.60658  0.00922  -0.15111
     2.10  0.72252  0.00949  -0.15185
     3.15  0.83765  0.00986  -0.15252
     4.21  0.94812  0.01019  -0.15176
     5.26  1.05524  0.01069  -0.15040
     6.31  1.14926  0.01124  -0.14675
     8.49  1.25535  0.01759  -0.12900
    10.68  1.25472  0.04885  -0.11504
    12.86  1.29431  0.08497  -0.11254
    15.05  1.30200  0.12601  -0.11166
    17.23  1.22762  0.21189  -0.12453
    19.42  1.18476  0.27864  -0.13696
    21.60  1.12354  0.33280  -0.16411
    23.79  1.09505  0.37163  -0.18622
    25.97  1.06657  0.41045  -0.20832
    28.15  1.03808  0.44928  -0.23043
    30.34  1.01327  0.49065  -0.24980
    32.52  0.99558  0.53668  -0.26439
    34.71  0.97975  0.58388  -0.27783
    36.89  0.96392  0.63108  -0.29126
    39.08  0.94808  0.67828  -0.30470
    41.26  0.92881  0.72697  -0.31680
    43.45  0.90697  0.77668  -0.32795
    45.63  0.88513  0.82638  -0.33910
    47.82  0.86329  0.87609  -0.35024
    50.00  0.84146  0.92580  -0.36139
    60.00  0.69046  1.13579  -0.40641
    70.00  0.48846  1.30083  -0.44502
    80.00  0.25000  1.39895  -0.47593
    90.00  0.00000  1.41600  -0.49721
   100.00  -0.17500  1.39895  -0.51755
   110.00  -0.34200  1.30083  -0.52189
   120.00  -0.48346  1.13579  -0.51309
   130.00  -0.58946  0.92580  -0.49722
   140.00  -0.65891  0.69802  -0.48369
   150.00  -0.70991  0.48178  -0.49035
   160.00  -0.79540  0.30428  -0.56626
   170.00  -0.39720  0.18802  -0.50000
   180.00  0.00000  0.14752  0.00000
EOT
