AeroDyn airfoil file.  Compatible with AeroDyn v13.0.
Interpolated thickness: 0.594

  1        Number of airfoil tables in this file
  9990     Reynolds number in millions.  For efficiency, make very large if only one table.
  0        Control setting
  10.7352  Stall angle (deg)
  -3.35553 Zero lift angle of attack (deg)
  3.66621  Cn slope for zero lift (dimensionless)
  0.901629 Cn at stall value for positive angle of attack
  -0.8     Cn at stall value for negative angle of attack
  -2.12    Angle of attack for minimum CD (deg)
  0.168636 Minimum CD value
  -180.00  0.00005  0.22227  -0.00005
  -170.00  0.21053  0.24423  0.21364
  -160.00  0.42154  0.30721  -0.07655
  -150.00  0.37880  0.40347  -0.03370
  -140.00  0.35156  0.52095  -0.00384
  -130.00  0.31470  0.64504  0.02506
  -120.00  0.25807  0.76001  0.05375
  -110.00  0.18275  0.85125  0.08035
  -100.00  0.09353  0.90697  0.10215
   -90.00  0.00005  0.91947  0.11646
   -80.00  -0.09344  0.90697  0.12704
   -70.00  -0.18265  0.85125  0.12897
   -60.00  -0.25798  0.76001  0.12400
   -50.00  -0.31460  0.64504  0.11534
   -40.00  -0.35146  0.52095  0.10829
   -30.00  -0.37871  0.40347  0.11251
   -20.00  -0.42038  0.30710  0.15354
   -10.00  -0.17197  0.21965  0.06785
    -4.17  -0.03842  0.16874  -0.07195
    -3.17  0.02248  0.16869  -0.07302
    -2.12  0.08552  0.16864  -0.07387
    -1.08  0.14909  0.16864  -0.07484
    -0.05  0.21213  0.16869  -0.07537
    -0.03  0.21227  0.16869  -0.07537
     1.16  0.28674  0.16881  -0.07606
     2.32  0.35688  0.16890  -0.07664
     3.48  0.42724  0.16908  -0.07704
     4.64  0.49539  0.16923  -0.07694
     5.80  0.56137  0.16943  -0.07647
     6.96  0.62393  0.16977  -0.07532
     8.12  0.67529  0.17013  -0.07217
    10.74  0.69863  0.17690  -0.05609
    13.35  0.61147  0.22418  -0.05181
    15.97  0.59046  0.25345  -0.05636
    18.59  0.60394  0.28261  -0.06342
    21.21  0.60059  0.31921  -0.07493
    23.82  0.58265  0.34443  -0.08955
    26.44  0.56472  0.36965  -0.10417
    29.06  0.54678  0.39488  -0.11879
    31.68  0.53405  0.42369  -0.12954
    34.29  0.52400  0.45437  -0.13830
    36.91  0.51396  0.48504  -0.14706
    39.53  0.50392  0.51572  -0.15583
    42.15  0.49075  0.54783  -0.16334
    44.76  0.47694  0.58023  -0.17059
    47.38  0.46313  0.61264  -0.17784
    50.00  0.44932  0.64504  -0.18510
    60.00  0.36865  0.76001  -0.20983
    70.00  0.26074  0.85125  -0.23136
    80.00  0.13360  0.90697  -0.24904
    90.00  0.00005  0.91947  -0.26176
   100.00  -0.09344  0.90697  -0.27228
   110.00  -0.18265  0.85125  -0.27426
   120.00  -0.25798  0.76001  -0.26924
   130.00  -0.31460  0.64504  -0.26063
   140.00  -0.35146  0.52095  -0.25353
   150.00  -0.37871  0.40347  -0.25775
   160.00  -0.42145  0.30721  -0.29920
   170.00  -0.21043  0.24423  -0.26715
   180.00  0.00005  0.22227  -0.00005
EOT
