AeroDyn airfoil file.  Compatible with AeroDyn v13.0.
Interpolated thickness: 0.369

  1        Number of airfoil tables in this file
  9990     Reynolds number in millions.  For efficiency, make very large if only one table.
  0        Control setting
  10.7962  Stall angle (deg)
  -3.52261 Zero lift angle of attack (deg)
  5.44156  Cn slope for zero lift (dimensionless)
  1.35991  Cn at stall value for positive angle of attack
  -0.8     Cn at stall value for negative angle of attack
  -2.12    Angle of attack for minimum CD (deg)
  0.0681257 Minimum CD value
  -180.00  0.00002  0.15148  -0.00002
  -170.00  0.32714  0.18561  0.33209
  -160.00  0.65509  0.28350  -0.11891
  -150.00  0.58867  0.43311  -0.05232
  -140.00  0.54633  0.61568  -0.00591
  -130.00  0.48904  0.80855  0.03901
  -120.00  0.40103  0.98723  0.08359
  -110.00  0.28397  1.12904  0.12494
  -100.00  0.14531  1.21563  0.15881
   -90.00  0.00002  1.23506  0.18106
   -80.00  -0.14528  1.21563  0.19750
   -70.00  -0.28393  1.12904  0.20049
   -60.00  -0.40100  0.98723  0.19277
   -50.00  -0.48901  0.80855  0.17932
   -40.00  -0.54630  0.61568  0.16836
   -30.00  -0.58864  0.43311  0.17492
   -20.00  -0.65340  0.28333  0.23868
   -10.00  -0.26733  0.14742  0.10551
    -4.17  -0.05976  0.06829  -0.11177
    -3.17  0.03489  0.06821  -0.11343
    -2.12  0.13286  0.06813  -0.11476
    -1.08  0.23166  0.06813  -0.11625
    -0.05  0.32963  0.06821  -0.11708
    -0.04  0.32986  0.06821  -0.11709
     1.17  0.44559  0.06839  -0.11815
     2.34  0.55460  0.06854  -0.11906
     3.51  0.66396  0.06882  -0.11969
     4.68  0.76988  0.06905  -0.11953
     5.84  0.87242  0.06936  -0.11879
     7.01  0.96964  0.06988  -0.11701
     8.18  1.04947  0.07045  -0.11210
    10.80  1.08575  0.08097  -0.08713
    13.41  0.95028  0.15446  -0.08047
    16.02  0.91763  0.19995  -0.08754
    18.64  0.93857  0.24526  -0.09852
    21.25  0.93337  0.30214  -0.11640
    23.86  0.90549  0.34135  -0.13912
    26.48  0.87762  0.38055  -0.16184
    29.09  0.84974  0.41975  -0.18456
    31.70  0.82995  0.46454  -0.20128
    34.32  0.81434  0.51221  -0.21490
    36.93  0.79873  0.55988  -0.22851
    39.55  0.78312  0.60756  -0.24213
    42.16  0.76266  0.65746  -0.25380
    44.77  0.74120  0.70783  -0.26507
    47.39  0.71973  0.75819  -0.27635
    50.00  0.69827  0.80855  -0.28762
    60.00  0.57290  0.98723  -0.32606
    70.00  0.40519  1.12904  -0.35952
    80.00  0.20758  1.21563  -0.38700
    90.00  0.00002  1.23506  -0.40676
   100.00  -0.14528  1.21563  -0.42312
   110.00  -0.28393  1.12904  -0.42619
   120.00  -0.40100  0.98723  -0.41839
   130.00  -0.48901  0.80855  -0.40502
   140.00  -0.54630  0.61568  -0.39398
   150.00  -0.58864  0.43311  -0.40054
   160.00  -0.65506  0.28350  -0.46496
   170.00  -0.32711  0.18561  -0.41515
   180.00  0.00002  0.15148  -0.00002
EOT
