AeroDyn airfoil file.  Compatible with AeroDyn v13.0.
Interpolated thickness: 0.916

  1        Number of airfoil tables in this file
  9990     Reynolds number in millions.  For efficiency, make very large if only one table.
  0        Control setting
  10.6478  Stall angle (deg)
  -2.48738 Zero lift angle of attack (deg)
  1.03511  Cn slope for zero lift (dimensionless)
  0.237301 Cn at stall value for positive angle of attack
  -0.8     Cn at stall value for negative angle of attack
  -2.12    Angle of attack for minimum CD (deg)
  0.312476 Minimum CD value
  -180.00  0.00009  0.32357  -0.00009
  -170.00  0.04364  0.32812  0.04412
  -160.00  0.08729  0.34115  -0.01592
  -150.00  0.07845  0.36106  -0.00705
  -140.00  0.07282  0.38537  -0.00087
  -130.00  0.06519  0.41104  0.00511
  -120.00  0.05347  0.43483  0.01104
  -110.00  0.03789  0.45371  0.01655
  -100.00  0.01943  0.46523  0.02105
   -90.00  0.00009  0.46782  0.02402
   -80.00  -0.01925  0.46523  0.02621
   -70.00  -0.03771  0.45371  0.02660
   -60.00  -0.05330  0.43483  0.02558
   -50.00  -0.06501  0.41104  0.02378
   -40.00  -0.07264  0.38537  0.02233
   -30.00  -0.07827  0.36106  0.02320
   -20.00  -0.08690  0.34112  0.03169
   -10.00  -0.03550  0.32303  0.01396
    -4.17  -0.00787  0.31250  -0.01497
    -3.17  0.00473  0.31249  -0.01519
    -2.12  0.01777  0.31248  -0.01536
    -1.08  0.03093  0.31248  -0.01556
    -0.05  0.04397  0.31249  -0.01567
    -0.01  0.04400  0.31249  -0.01567
     1.15  0.05941  0.31251  -0.01582
     2.29  0.07392  0.31253  -0.01594
     3.44  0.08847  0.31257  -0.01602
     4.59  0.10257  0.31260  -0.01600
     5.73  0.11623  0.31264  -0.01590
     6.88  0.12917  0.31271  -0.01566
     8.02  0.13979  0.31279  -0.01501
    10.65  0.14462  0.31419  -0.01169
    13.27  0.12659  0.32397  -0.01080
    15.89  0.12224  0.33003  -0.01174
    18.52  0.12503  0.33606  -0.01320
    21.14  0.12434  0.34363  -0.01558
    23.77  0.12063  0.34885  -0.01861
    26.39  0.11692  0.35407  -0.02163
    29.01  0.11321  0.35929  -0.02466
    31.64  0.11057  0.36525  -0.02688
    34.26  0.10849  0.37159  -0.02869
    36.88  0.10642  0.37794  -0.03051
    39.51  0.10434  0.38429  -0.03232
    42.13  0.10161  0.39093  -0.03387
    44.75  0.09876  0.39763  -0.03537
    47.38  0.09590  0.40434  -0.03687
    50.00  0.09304  0.41104  -0.03838
    60.00  0.07635  0.43483  -0.04349
    70.00  0.05403  0.45371  -0.04795
    80.00  0.02772  0.46523  -0.05161
    90.00  0.00009  0.46782  -0.05424
   100.00  -0.01925  0.46523  -0.05641
   110.00  -0.03771  0.45371  -0.05682
   120.00  -0.05330  0.43483  -0.05578
   130.00  -0.06501  0.41104  -0.05400
   140.00  -0.07264  0.38537  -0.05253
   150.00  -0.07827  0.36106  -0.05341
   160.00  -0.08712  0.34115  -0.06198
   170.00  -0.04346  0.32812  -0.05535
   180.00  0.00009  0.32357  -0.00009
EOT
