AeroDyn airfoil file.  Compatible with AeroDyn v13.0.
Interpolated thickness: 0.886

  1        Number of airfoil tables in this file
  9990     Reynolds number in millions.  For efficiency, make very large if only one table.
  0        Control setting
  10.6559  Stall angle (deg)
  -2.73068 Zero lift angle of attack (deg)
  1.27883  Cn slope for zero lift (dimensionless)
  0.298787 Cn at stall value for positive angle of attack
  -0.8     Cn at stall value for negative angle of attack
  -2.12    Angle of attack for minimum CD (deg)
  0.299075 Minimum CD value
  -180.00  0.00009  0.31414  -0.00009
  -170.00  0.05919  0.32030  0.05992
  -160.00  0.11844  0.33798  -0.02157
  -150.00  0.10644  0.36501  -0.00954
  -140.00  0.09879  0.39800  -0.00115
  -130.00  0.08844  0.43285  0.00697
  -120.00  0.07254  0.46513  0.01502
  -110.00  0.05139  0.49074  0.02249
  -100.00  0.02634  0.50639  0.02861
   -90.00  0.00009  0.50990  0.03263
   -80.00  -0.02617  0.50639  0.03560
   -70.00  -0.05122  0.49074  0.03614
   -60.00  -0.07237  0.46513  0.03475
   -50.00  -0.08827  0.43285  0.03232
   -40.00  -0.09862  0.39800  0.03034
   -30.00  -0.10627  0.36501  0.03152
   -20.00  -0.11797  0.33796  0.04304
   -10.00  -0.04822  0.31340  0.01898
    -4.17  -0.01072  0.29911  -0.02028
    -3.17  0.00639  0.29909  -0.02058
    -2.12  0.02409  0.29907  -0.02082
    -1.08  0.04194  0.29907  -0.02109
    -0.05  0.05964  0.29909  -0.02124
    -0.01  0.05968  0.29909  -0.02124
     1.15  0.08059  0.29912  -0.02143
     2.30  0.10028  0.29915  -0.02159
     3.44  0.12004  0.29920  -0.02171
     4.59  0.13917  0.29924  -0.02168
     5.74  0.15770  0.29930  -0.02154
     6.89  0.17526  0.29939  -0.02122
     8.03  0.18969  0.29950  -0.02034
    10.66  0.19624  0.30140  -0.01582
    13.28  0.17177  0.31467  -0.01462
    15.90  0.16587  0.32289  -0.01590
    18.52  0.16965  0.33108  -0.01788
    21.15  0.16871  0.34135  -0.02111
    23.77  0.16367  0.34844  -0.02522
    26.39  0.15864  0.35552  -0.02932
    29.02  0.15360  0.36260  -0.03343
    31.64  0.15003  0.37069  -0.03645
    34.26  0.14721  0.37931  -0.03891
    36.89  0.14439  0.38792  -0.04137
    39.51  0.14157  0.39653  -0.04383
    42.13  0.13787  0.40555  -0.04593
    44.75  0.13399  0.41465  -0.04797
    47.38  0.13011  0.42375  -0.05001
    50.00  0.12624  0.43285  -0.05205
    60.00  0.10359  0.46513  -0.05899
    70.00  0.07329  0.49074  -0.06504
    80.00  0.03759  0.50639  -0.07000
    90.00  0.00009  0.50990  -0.07357
   100.00  -0.02617  0.50639  -0.07653
   110.00  -0.05122  0.49074  -0.07708
   120.00  -0.07237  0.46513  -0.07567
   130.00  -0.08827  0.43285  -0.07326
   140.00  -0.09862  0.39800  -0.07126
   150.00  -0.10627  0.36501  -0.07245
   160.00  -0.11827  0.33798  -0.08409
   170.00  -0.05902  0.32030  -0.07509
   180.00  0.00009  0.31414  -0.00009
EOT
