AeroDyn airfoil file.  Compatible with AeroDyn v13.0.
Interpolated thickness: 0.313

  1        Number of airfoil tables in this file
  9990     Reynolds number in millions.  For efficiency, make very large if only one table.
  0        Control setting
  10.8114  Stall angle (deg)
  -3.55353 Zero lift angle of attack (deg)
  5.87671  Cn slope for zero lift (dimensionless)
  1.47339  Cn at stall value for positive angle of attack
  -0.8     Cn at stall value for negative angle of attack
  -2.12    Angle of attack for minimum CD (deg)
  0.0431099 Minimum CD value
  -180.00  0.00001  0.13387  -0.00001
  -170.00  0.35616  0.17102  0.36157
  -160.00  0.71322  0.27759  -0.12945
  -150.00  0.64091  0.44049  -0.05696
  -140.00  0.59481  0.63926  -0.00643
  -130.00  0.53243  0.84925  0.04248
  -120.00  0.43662  1.04378  0.09102
  -110.00  0.30916  1.19817  0.13603
  -100.00  0.15820  1.29246  0.17292
   -90.00  0.00001  1.31361  0.19714
   -80.00  -0.15818  1.29246  0.21504
   -70.00  -0.30914  1.19817  0.21829
   -60.00  -0.43660  1.04378  0.20989
   -50.00  -0.53242  0.84925  0.19524
   -40.00  -0.59479  0.63926  0.18331
   -30.00  -0.64089  0.44049  0.19045
   -20.00  -0.71140  0.27741  0.25988
   -10.00  -0.29106  0.12944  0.11488
    -4.17  -0.06507  0.04329  -0.12168
    -3.17  0.03798  0.04320  -0.12349
    -2.12  0.14464  0.04311  -0.12494
    -1.08  0.25221  0.04311  -0.12656
    -0.05  0.35888  0.04320  -0.12747
    -0.04  0.35912  0.04320  -0.12747
     1.17  0.48513  0.04340  -0.12863
     2.34  0.60381  0.04356  -0.12962
     3.51  0.72288  0.04386  -0.13030
     4.69  0.83820  0.04412  -0.13013
     5.86  0.94984  0.04446  -0.12932
     7.03  1.05569  0.04502  -0.12738
     8.20  1.14260  0.04564  -0.12204
    10.81  1.18210  0.05709  -0.09485
    13.42  1.03461  0.13710  -0.08761
    16.04  0.99906  0.18663  -0.09530
    18.65  1.02186  0.23597  -0.10725
    21.26  1.01619  0.29790  -0.12672
    23.87  0.98584  0.34058  -0.15146
    26.49  0.95550  0.38326  -0.17620
    29.10  0.92515  0.42594  -0.20093
    31.71  0.90360  0.47470  -0.21913
    34.32  0.88661  0.52661  -0.23396
    36.94  0.86961  0.57851  -0.24878
    39.55  0.85262  0.63042  -0.26361
    42.16  0.83033  0.68475  -0.27631
    44.77  0.80697  0.73958  -0.28859
    47.39  0.78360  0.79442  -0.30086
    50.00  0.76023  0.84925  -0.31314
    60.00  0.62373  1.04378  -0.35499
    70.00  0.44114  1.19817  -0.39142
    80.00  0.22600  1.29246  -0.42134
    90.00  0.00001  1.31361  -0.44285
   100.00  -0.15818  1.29246  -0.46066
   110.00  -0.30914  1.19817  -0.46401
   120.00  -0.43660  1.04378  -0.45551
   130.00  -0.53242  0.84925  -0.44096
   140.00  -0.59479  0.63926  -0.42893
   150.00  -0.64089  0.44049  -0.43607
   160.00  -0.71320  0.27759  -0.50622
   170.00  -0.35615  0.17102  -0.45198
   180.00  0.00001  0.13387  -0.00001
EOT
