AeroDyn airfoil file.  Compatible with AeroDyn v13.0.
Interpolated thickness: 0.367

  1        Number of airfoil tables in this file
  9990     Reynolds number in millions.  For efficiency, make very large if only one table.
  0        Control setting
  10.7968  Stall angle (deg)
  -3.52376 Zero lift angle of attack (deg)
  5.45714  Cn slope for zero lift (dimensionless)
  1.36396  Cn at stall value for positive angle of attack
  -0.8     Cn at stall value for negative angle of attack
  -2.12    Angle of attack for minimum CD (deg)
  0.0672322 Minimum CD value
  -180.00  0.00002  0.15085  -0.00002
  -170.00  0.32818  0.18509  0.33314
  -160.00  0.65717  0.28329  -0.11929
  -150.00  0.59054  0.43337  -0.05249
  -140.00  0.54806  0.61653  -0.00593
  -130.00  0.49059  0.81001  0.03913
  -120.00  0.40230  0.98925  0.08386
  -110.00  0.28487  1.13151  0.12533
  -100.00  0.14577  1.21838  0.15932
   -90.00  0.00002  1.23787  0.18164
   -80.00  -0.14574  1.21838  0.19813
   -70.00  -0.28483  1.13151  0.20113
   -60.00  -0.40227  0.98925  0.19338
   -50.00  -0.49056  0.81001  0.17989
   -40.00  -0.54803  0.61653  0.16889
   -30.00  -0.59051  0.43337  0.17547
   -20.00  -0.65547  0.28312  0.23944
   -10.00  -0.26818  0.14677  0.10584
    -4.17  -0.05995  0.06740  -0.11212
    -3.17  0.03500  0.06732  -0.11379
    -2.12  0.13328  0.06723  -0.11512
    -1.08  0.23239  0.06723  -0.11662
    -0.05  0.33068  0.06732  -0.11745
    -0.04  0.33090  0.06732  -0.11746
     1.17  0.44701  0.06750  -0.11853
     2.34  0.55636  0.06764  -0.11944
     3.51  0.66606  0.06793  -0.12007
     4.68  0.77232  0.06816  -0.11991
     5.85  0.87519  0.06847  -0.11916
     7.01  0.97271  0.06899  -0.11738
     8.18  1.05280  0.06956  -0.11246
    10.80  1.08919  0.08012  -0.08740
    13.41  0.95330  0.15384  -0.08073
    16.02  0.92054  0.19947  -0.08781
    18.64  0.94155  0.24493  -0.09883
    21.25  0.93633  0.30199  -0.11677
    23.86  0.90836  0.34132  -0.13956
    26.48  0.88040  0.38064  -0.16235
    29.09  0.85244  0.41997  -0.18515
    31.71  0.83258  0.46490  -0.20192
    34.32  0.81692  0.51272  -0.21558
    36.93  0.80127  0.56055  -0.22923
    39.55  0.78561  0.60838  -0.24289
    42.16  0.76508  0.65844  -0.25460
    44.77  0.74354  0.70896  -0.26591
    47.39  0.72201  0.75948  -0.27722
    50.00  0.70048  0.81001  -0.28853
    60.00  0.57471  0.98925  -0.32709
    70.00  0.40647  1.13151  -0.36066
    80.00  0.20824  1.21838  -0.38823
    90.00  0.00002  1.23787  -0.40805
   100.00  -0.14574  1.21838  -0.42446
   110.00  -0.28483  1.13151  -0.42754
   120.00  -0.40227  0.98925  -0.41971
   130.00  -0.49056  0.81001  -0.40630
   140.00  -0.54803  0.61653  -0.39523
   150.00  -0.59051  0.43337  -0.40181
   160.00  -0.65714  0.28329  -0.46644
   170.00  -0.32814  0.18509  -0.41646
   180.00  0.00002  0.15085  -0.00002
EOT
