AeroDyn airfoil file.  Compatible with AeroDyn v13.0.
Interpolated thickness: 0.697

  1        Number of airfoil tables in this file
  9990     Reynolds number in millions.  For efficiency, make very large if only one table.
  0        Control setting
  10.7072  Stall angle (deg)
  -3.23056 Zero lift angle of attack (deg)
  2.83883  Cn slope for zero lift (dimensionless)
  0.690574 Cn at stall value for positive angle of attack
  -0.8     Cn at stall value for negative angle of attack
  -2.12    Angle of attack for minimum CD (deg)
  0.214647 Minimum CD value
  -180.00  0.00006  0.25467  -0.00006
  -170.00  0.15714  0.27106  0.15941
  -160.00  0.31462  0.31807  -0.05715
  -150.00  0.28273  0.38991  -0.02518
  -140.00  0.26239  0.47758  -0.00289
  -130.00  0.23489  0.57019  0.01868
  -120.00  0.19262  0.65599  0.04009
  -110.00  0.13641  0.72409  0.05994
  -100.00  0.06983  0.76567  0.07621
   -90.00  0.00006  0.77500  0.08689
   -80.00  -0.06971  0.76567  0.09479
   -70.00  -0.13629  0.72409  0.09622
   -60.00  -0.19250  0.65599  0.09251
   -50.00  -0.23476  0.57019  0.08606
   -40.00  -0.26227  0.47758  0.08079
   -30.00  -0.28261  0.38991  0.08394
   -20.00  -0.31370  0.31799  0.11456
   -10.00  -0.12832  0.25272  0.05061
    -4.17  -0.02865  0.21473  -0.05372
    -3.17  0.01680  0.21469  -0.05452
    -2.12  0.06385  0.21465  -0.05516
    -1.08  0.11129  0.21465  -0.05588
    -0.05  0.15834  0.21469  -0.05627
    -0.02  0.15845  0.21469  -0.05628
     1.16  0.21402  0.21477  -0.05679
     2.31  0.26637  0.21484  -0.05723
     3.47  0.31888  0.21498  -0.05752
     4.62  0.36974  0.21509  -0.05745
     5.78  0.41898  0.21524  -0.05709
     6.93  0.46566  0.21549  -0.05624
     8.09  0.50400  0.21576  -0.05388
    10.71  0.52142  0.22081  -0.04189
    13.33  0.45637  0.25610  -0.03869
    15.95  0.44069  0.27795  -0.04209
    18.57  0.45075  0.29971  -0.04736
    21.19  0.44825  0.32702  -0.05595
    23.80  0.43486  0.34584  -0.06686
    26.42  0.42148  0.36467  -0.07777
    29.04  0.40809  0.38349  -0.08868
    31.66  0.39859  0.40500  -0.09670
    34.28  0.39109  0.42789  -0.10324
    36.90  0.38360  0.45078  -0.10978
    39.52  0.37610  0.47368  -0.11632
    42.14  0.36627  0.49764  -0.12192
    44.76  0.35597  0.52183  -0.12734
    47.38  0.34566  0.54601  -0.13275
    50.00  0.33535  0.57019  -0.13816
    60.00  0.27515  0.65599  -0.15662
    70.00  0.19462  0.72409  -0.17269
    80.00  0.09973  0.76567  -0.18589
    90.00  0.00006  0.77500  -0.19538
   100.00  -0.06971  0.76567  -0.20323
   110.00  -0.13629  0.72409  -0.20470
   120.00  -0.19250  0.65599  -0.20096
   130.00  -0.23476  0.57019  -0.19454
   140.00  -0.26227  0.47758  -0.18924
   150.00  -0.28261  0.38991  -0.19239
   160.00  -0.31450  0.31807  -0.22332
   170.00  -0.15702  0.27106  -0.19940
   180.00  0.00006  0.25467  -0.00006
EOT
