AeroDyn airfoil file.  Compatible with AeroDyn v13.0.
Interpolated thickness: 0.625

  1        Number of airfoil tables in this file
  9990     Reynolds number in millions.  For efficiency, make very large if only one table.
  0        Control setting
  10.7268  Stall angle (deg)
  -3.32309 Zero lift angle of attack (deg)
  3.41818  Cn slope for zero lift (dimensionless)
  0.838193 Cn at stall value for positive angle of attack
  -0.8     Cn at stall value for negative angle of attack
  -2.12    Angle of attack for minimum CD (deg)
  0.182484 Minimum CD value
  -180.00  0.00005  0.23202  -0.00005
  -170.00  0.19446  0.25230  0.19732
  -160.00  0.38936  0.31048  -0.07071
  -150.00  0.34989  0.39939  -0.03114
  -140.00  0.32472  0.50789  -0.00355
  -130.00  0.29068  0.62252  0.02314
  -120.00  0.23837  0.72870  0.04964
  -110.00  0.16880  0.81298  0.07421
  -100.00  0.08640  0.86444  0.09434
   -90.00  0.00005  0.87599  0.10756
   -80.00  -0.08630  0.86444  0.11733
   -70.00  -0.16870  0.81298  0.11911
   -60.00  -0.23827  0.72870  0.11452
   -50.00  -0.29057  0.62252  0.10653
   -40.00  -0.32462  0.50789  0.10002
   -30.00  -0.34978  0.39939  0.10391
   -20.00  -0.38827  0.31038  0.14181
   -10.00  -0.15883  0.22961  0.06266
    -4.17  -0.03548  0.18258  -0.06647
    -3.17  0.02077  0.18253  -0.06745
    -2.12  0.07900  0.18248  -0.06824
    -1.08  0.13772  0.18248  -0.06913
    -0.05  0.19594  0.18253  -0.06962
    -0.02  0.19607  0.18253  -0.06962
     1.16  0.26486  0.18264  -0.07026
     2.32  0.32964  0.18273  -0.07080
     3.48  0.39463  0.18290  -0.07117
     4.63  0.45758  0.18304  -0.07108
     5.79  0.51852  0.18322  -0.07063
     6.95  0.57629  0.18353  -0.06958
     8.11  0.62373  0.18387  -0.06666
    10.73  0.64530  0.19012  -0.05182
    13.34  0.56479  0.23379  -0.04787
    15.96  0.54538  0.26083  -0.05206
    18.58  0.55783  0.28776  -0.05859
    21.20  0.55474  0.32156  -0.06922
    23.82  0.53817  0.34486  -0.08272
    26.44  0.52160  0.36815  -0.09622
    29.05  0.50504  0.39145  -0.10972
    31.67  0.49328  0.41807  -0.11966
    34.29  0.48400  0.44640  -0.12775
    36.91  0.47472  0.47473  -0.13584
    39.53  0.46545  0.50307  -0.14393
    42.15  0.45328  0.53272  -0.15087
    44.76  0.44053  0.56266  -0.15757
    47.38  0.42777  0.59259  -0.16427
    50.00  0.41502  0.62252  -0.17097
    60.00  0.34051  0.72870  -0.19382
    70.00  0.24084  0.81298  -0.21370
    80.00  0.12341  0.86444  -0.23003
    90.00  0.00005  0.87599  -0.24178
   100.00  -0.08630  0.86444  -0.25150
   110.00  -0.16870  0.81298  -0.25332
   120.00  -0.23827  0.72870  -0.24869
   130.00  -0.29057  0.62252  -0.24074
   140.00  -0.32462  0.50789  -0.23418
   150.00  -0.34978  0.39939  -0.23808
   160.00  -0.38926  0.31048  -0.27637
   170.00  -0.19436  0.25230  -0.24676
   180.00  0.00005  0.23202  -0.00005
EOT
