AeroDyn airfoil file.  Compatible with AeroDyn v13.0.
Interpolated thickness: 0.757

  1        Number of airfoil tables in this file
  9990     Reynolds number in millions.  For efficiency, make very large if only one table.
  0        Control setting
  10.6909  Stall angle (deg)
  -3.12457 Zero lift angle of attack (deg)
  2.35253  Cn slope for zero lift (dimensionless)
  0.567257 Cn at stall value for positive angle of attack
  -0.8     Cn at stall value for negative angle of attack
  -2.12    Angle of attack for minimum CD (deg)
  0.241449 Minimum CD value
  -180.00  0.00007  0.27355  -0.00007
  -170.00  0.12604  0.28669  0.12783
  -160.00  0.25234  0.32439  -0.04585
  -150.00  0.22676  0.38201  -0.02021
  -140.00  0.21045  0.45232  -0.00234
  -130.00  0.18839  0.52659  0.01496
  -120.00  0.15450  0.59540  0.03213
  -110.00  0.10942  0.65001  0.04805
  -100.00  0.05602  0.68336  0.06110
   -90.00  0.00007  0.69084  0.06967
   -80.00  -0.05589  0.68336  0.07600
   -70.00  -0.10928  0.65001  0.07715
   -60.00  -0.15436  0.59540  0.07417
   -50.00  -0.18826  0.52659  0.06900
   -40.00  -0.21032  0.45232  0.06477
   -30.00  -0.22663  0.38201  0.06730
   -20.00  -0.25156  0.32433  0.09186
   -10.00  -0.10289  0.27198  0.04057
    -4.17  -0.02295  0.24151  -0.04310
    -3.17  0.01350  0.24148  -0.04374
    -2.12  0.05123  0.24145  -0.04426
    -1.08  0.08927  0.24145  -0.04483
    -0.05  0.12700  0.24148  -0.04515
    -0.02  0.12709  0.24148  -0.04515
     1.15  0.17166  0.24155  -0.04556
     2.31  0.21364  0.24161  -0.04591
     3.46  0.25575  0.24172  -0.04615
     4.61  0.29654  0.24181  -0.04609
     5.76  0.33603  0.24193  -0.04581
     6.92  0.37347  0.24213  -0.04512
     8.07  0.40422  0.24234  -0.04323
    10.69  0.41819  0.24640  -0.03361
    13.31  0.36602  0.27470  -0.03105
    15.93  0.35344  0.29222  -0.03377
    18.55  0.36151  0.30967  -0.03800
    21.17  0.35950  0.33157  -0.04489
    23.79  0.34877  0.34667  -0.05364
    26.41  0.33804  0.36176  -0.06239
    29.04  0.32730  0.37686  -0.07114
    31.66  0.31968  0.39411  -0.07758
    34.28  0.31367  0.41247  -0.08282
    36.90  0.30766  0.43083  -0.08806
    39.52  0.30165  0.44919  -0.09331
    42.14  0.29376  0.46841  -0.09780
    44.76  0.28550  0.48780  -0.10214
    47.38  0.27723  0.50720  -0.10648
    50.00  0.26897  0.52659  -0.11082
    60.00  0.22069  0.59540  -0.12563
    70.00  0.15610  0.65001  -0.13851
    80.00  0.08000  0.68336  -0.14910
    90.00  0.00007  0.69084  -0.15671
   100.00  -0.05589  0.68336  -0.16301
   110.00  -0.10928  0.65001  -0.16419
   120.00  -0.15436  0.59540  -0.16118
   130.00  -0.18826  0.52659  -0.15604
   140.00  -0.21032  0.45232  -0.15178
   150.00  -0.22663  0.38201  -0.15431
   160.00  -0.25220  0.32439  -0.17912
   170.00  -0.12591  0.28669  -0.15994
   180.00  0.00007  0.27355  -0.00007
EOT
