AeroDyn airfoil file.  Compatible with AeroDyn v13.0.
Interpolated thickness: 0.492

  1        Number of airfoil tables in this file
  9990     Reynolds number in millions.  For efficiency, make very large if only one table.
  0        Control setting
  10.7629  Stall angle (deg)
  -3.44256 Zero lift angle of attack (deg)
  4.47643  Cn slope for zero lift (dimensionless)
  1.10985  Cn at stall value for positive angle of attack
  -0.8     Cn at stall value for negative angle of attack
  -2.12    Angle of attack for minimum CD (deg)
  0.123071 Minimum CD value
  -180.00  0.00003  0.19018  -0.00003
  -170.00  0.26339  0.21765  0.26734
  -160.00  0.52742  0.29646  -0.09575
  -150.00  0.47394  0.41691  -0.04214
  -140.00  0.43985  0.56389  -0.00478
  -130.00  0.39373  0.71917  0.03138
  -120.00  0.32288  0.86301  0.06728
  -110.00  0.22863  0.97718  0.10056
  -100.00  0.11701  1.04690  0.12784
   -90.00  0.00003  1.06254  0.14575
   -80.00  -0.11694  1.04690  0.15898
   -70.00  -0.22857  0.97718  0.16139
   -60.00  -0.32281  0.86301  0.15517
   -50.00  -0.39367  0.71917  0.14435
   -40.00  -0.43979  0.56389  0.13552
   -30.00  -0.47388  0.41691  0.14080
   -20.00  -0.52601  0.29633  0.19214
   -10.00  -0.21520  0.18691  0.08492
    -4.17  -0.04809  0.12320  -0.09000
    -3.17  0.02811  0.12314  -0.09134
    -2.12  0.10698  0.12307  -0.09241
    -1.08  0.18652  0.12307  -0.09361
    -0.05  0.26540  0.12314  -0.09428
    -0.03  0.26558  0.12314  -0.09428
     1.16  0.35875  0.12328  -0.09514
     2.33  0.44651  0.12340  -0.09587
     3.49  0.53455  0.12363  -0.09638
     4.66  0.61983  0.12382  -0.09625
     5.82  0.70238  0.12407  -0.09565
     6.98  0.78065  0.12449  -0.09422
     8.15  0.84492  0.12494  -0.09027
    10.76  0.87413  0.13341  -0.07016
    13.38  0.76507  0.19257  -0.06481
    15.99  0.73878  0.22920  -0.07049
    18.61  0.75564  0.26568  -0.07933
    21.23  0.75145  0.31147  -0.09373
    23.84  0.72901  0.34303  -0.11202
    26.46  0.70656  0.37459  -0.13031
    29.07  0.68412  0.40615  -0.14861
    31.69  0.66819  0.44221  -0.16206
    34.31  0.65562  0.48059  -0.17303
    36.92  0.64306  0.51897  -0.18399
    39.54  0.63049  0.55735  -0.19495
    42.15  0.61401  0.59753  -0.20435
    44.77  0.59673  0.63808  -0.21342
    47.38  0.57945  0.67862  -0.22250
    50.00  0.56218  0.71917  -0.23157
    60.00  0.46124  0.86301  -0.26252
    70.00  0.32622  0.97718  -0.28946
    80.00  0.16714  1.04690  -0.31158
    90.00  0.00003  1.06254  -0.32749
   100.00  -0.11694  1.04690  -0.34066
   110.00  -0.22857  0.97718  -0.34313
   120.00  -0.32281  0.86301  -0.33685
   130.00  -0.39367  0.71917  -0.32609
   140.00  -0.43979  0.56389  -0.31720
   150.00  -0.47388  0.41691  -0.32248
   160.00  -0.52735  0.29646  -0.37435
   170.00  -0.26332  0.21765  -0.33424
   180.00  0.00003  0.19018  -0.00003
EOT
