AeroDyn airfoil file.  Compatible with AeroDyn v13.0.
Interpolated thickness: 0.867

  1        Number of airfoil tables in this file
  9990     Reynolds number in millions.  For efficiency, make very large if only one table.
  0        Control setting
  10.6611  Stall angle (deg)
  -2.84256 Zero lift angle of attack (deg)
  1.4329   Cn slope for zero lift (dimensionless)
  0.33771  Cn at stall value for positive angle of attack
  -0.8     Cn at stall value for negative angle of attack
  -2.12    Angle of attack for minimum CD (deg)
  0.290587 Minimum CD value
  -180.00  0.00008  0.30816  -0.00008
  -170.00  0.06903  0.31535  0.06992
  -160.00  0.13816  0.33598  -0.02514
  -150.00  0.12416  0.36752  -0.01111
  -140.00  0.11523  0.40600  -0.00133
  -130.00  0.10316  0.44665  0.00814
  -120.00  0.08461  0.48431  0.01754
  -110.00  0.05993  0.51420  0.02626
  -100.00  0.03071  0.53246  0.03340
   -90.00  0.00008  0.53655  0.03809
   -80.00  -0.03054  0.53246  0.04155
   -70.00  -0.05977  0.51420  0.04218
   -60.00  -0.08444  0.48431  0.04055
   -50.00  -0.10299  0.44665  0.03772
   -40.00  -0.11507  0.40600  0.03541
   -30.00  -0.12399  0.36752  0.03679
   -20.00  -0.13764  0.33595  0.05023
   -10.00  -0.05627  0.30730  0.02216
    -4.17  -0.01252  0.29062  -0.02364
    -3.17  0.00743  0.29060  -0.02399
    -2.12  0.02808  0.29059  -0.02427
    -1.08  0.04891  0.29059  -0.02458
    -0.05  0.06956  0.29060  -0.02476
    -0.01  0.06961  0.29061  -0.02476
     1.15  0.09400  0.29064  -0.02498
     2.30  0.11698  0.29067  -0.02517
     3.45  0.14003  0.29073  -0.02531
     4.59  0.16235  0.29078  -0.02527
     5.74  0.18396  0.29085  -0.02512
     6.89  0.20446  0.29096  -0.02474
     8.04  0.22128  0.29108  -0.02371
    10.66  0.22893  0.29329  -0.01844
    13.28  0.20038  0.30878  -0.01704
    15.91  0.19349  0.31837  -0.01853
    18.53  0.19791  0.32792  -0.02084
    21.15  0.19681  0.33991  -0.02461
    23.77  0.19094  0.34818  -0.02940
    26.40  0.18506  0.35644  -0.03419
    29.02  0.17919  0.36470  -0.03898
    31.64  0.17501  0.37414  -0.04250
    34.26  0.17172  0.38419  -0.04537
    36.89  0.16843  0.39424  -0.04824
    39.51  0.16514  0.40429  -0.05111
    42.13  0.16083  0.41481  -0.05357
    44.75  0.15631  0.42542  -0.05595
    47.38  0.15178  0.43604  -0.05833
    50.00  0.14726  0.44665  -0.06070
    60.00  0.12083  0.48431  -0.06881
    70.00  0.08548  0.51420  -0.07586
    80.00  0.04383  0.53246  -0.08165
    90.00  0.00008  0.53655  -0.08582
   100.00  -0.03054  0.53246  -0.08926
   110.00  -0.05977  0.51420  -0.08991
   120.00  -0.08444  0.48431  -0.08827
   130.00  -0.10299  0.44665  -0.08545
   140.00  -0.11507  0.40600  -0.08312
   150.00  -0.12399  0.36752  -0.08450
   160.00  -0.13799  0.33598  -0.09808
   170.00  -0.06887  0.31535  -0.08758
   180.00  0.00008  0.30816  -0.00008
EOT
