AeroDyn airfoil file.  Compatible with AeroDyn v13.0.
Interpolated thickness: 0.181

  1        Number of airfoil tables in this file
  9990     Reynolds number in millions.  For efficiency, make very large if only one table.
  0        Control setting
  13.7575  Stall angle (deg)
  -5.23396 Zero lift angle of attack (deg)
  6.14937  Cn slope for zero lift (dimensionless)
  2.03829  Cn at stall value for positive angle of attack
  -0.8     Cn at stall value for negative angle of attack
  -4.09    Angle of attack for minimum CD (deg)
  0.00724303 Minimum CD value
  -180.00  0.00000  0.17841  0.00000
  -170.00  0.39990  0.21842  0.40000
  -160.00  0.80080  0.33328  -0.13848
  -150.00  0.71069  0.50851  -0.06207
  -140.00  0.65969  0.72167  -0.00693
  -130.00  0.58984  0.94562  0.04641
  -120.00  0.48384  1.15121  0.09851
  -110.00  0.34200  1.31139  0.14544
  -100.00  0.17500  1.40432  0.18245
   -90.00  0.00000  1.41600  0.20461
   -80.00  -0.17500  1.40432  0.22551
   -70.00  -0.34200  1.31139  0.23037
   -60.00  -0.48384  1.15121  0.22209
   -50.00  -0.58984  0.94562  0.20639
   -40.00  -0.65969  0.72167  0.19269
   -30.00  -0.71069  0.50851  0.19831
   -20.00  -0.79964  0.33300  0.27241
   -10.00  -0.27311  0.10490  0.06355
    -6.04  -0.08544  0.01466  -0.13085
    -5.04  0.02581  0.00965  -0.14675
    -4.09  0.12245  0.00724  -0.15494
    -3.02  0.23851  0.00731  -0.15627
    -2.02  0.34554  0.00738  -0.15702
    -1.03  0.45184  0.00747  -0.15762
    -0.01  0.56056  0.00765  -0.15862
     0.78  0.64714  0.00786  -0.15840
     1.57  0.73140  0.00812  -0.15871
     2.35  0.81448  0.00847  -0.15946
     3.13  0.89614  0.00880  -0.15883
     3.91  0.97642  0.00915  -0.15806
     4.70  1.05244  0.00951  -0.15666
     6.96  1.21250  0.01397  -0.14479
     9.23  1.32478  0.02625  -0.13231
    11.49  1.43703  0.04145  -0.12350
    13.76  1.47300  0.07447  -0.11565
    16.02  1.30961  0.20180  -0.12951
    18.29  1.23022  0.27504  -0.13886
    20.55  1.14002  0.34301  -0.17045
    22.82  1.11015  0.38273  -0.19274
    25.08  1.08029  0.42245  -0.21502
    27.35  1.05042  0.46217  -0.23730
    29.61  1.02163  0.50263  -0.25880
    31.88  1.00171  0.54873  -0.27464
    34.14  0.98521  0.59700  -0.28834
    36.41  0.96870  0.64526  -0.30204
    38.67  0.95220  0.69352  -0.31574
    40.94  0.93309  0.74281  -0.32848
    43.20  0.91028  0.79352  -0.33987
    45.47  0.88747  0.84422  -0.35126
    47.73  0.86466  0.89492  -0.36265
    50.00  0.84184  0.94562  -0.37405
    60.00  0.69084  1.15121  -0.41799
    70.00  0.48884  1.31139  -0.45517
    80.00  0.25000  1.40432  -0.48422
    90.00  0.00000  1.41600  -0.50339
   100.00  -0.17500  1.40432  -0.52427
   110.00  -0.34200  1.31139  -0.52915
   120.00  -0.48384  1.15121  -0.52084
   130.00  -0.58984  0.94562  -0.50516
   140.00  -0.65969  0.72167  -0.49144
   150.00  -0.71069  0.50851  -0.49707
   160.00  -0.80080  0.33328  -0.57155
   170.00  -0.39990  0.21842  -0.50000
   180.00  0.00000  0.17841  0.00000
EOT
