AeroDyn airfoil file.  Compatible with AeroDyn v13.0.
Interpolated thickness: 0.853

  1        Number of airfoil tables in this file
  9990     Reynolds number in millions.  For efficiency, make very large if only one table.
  0        Control setting
  10.6649  Stall angle (deg)
  -2.91099 Zero lift angle of attack (deg)
  1.54628  Cn slope for zero lift (dimensionless)
  0.366381 Cn at stall value for positive angle of attack
  -0.8     Cn at stall value for negative angle of attack
  -2.12    Angle of attack for minimum CD (deg)
  0.284334 Minimum CD value
  -180.00  0.00008  0.30375  -0.00008
  -170.00  0.07629  0.31170  0.07729
  -160.00  0.15269  0.33451  -0.02778
  -150.00  0.13722  0.36936  -0.01227
  -140.00  0.12735  0.41189  -0.00145
  -130.00  0.11401  0.45683  0.00901
  -120.00  0.09350  0.49845  0.01940
  -110.00  0.06623  0.53149  0.02903
  -100.00  0.03393  0.55166  0.03692
   -90.00  0.00008  0.55619  0.04210
   -80.00  -0.03377  0.55166  0.04593
   -70.00  -0.06607  0.53149  0.04663
   -60.00  -0.09334  0.49845  0.04483
   -50.00  -0.11384  0.45683  0.04170
   -40.00  -0.12719  0.41189  0.03915
   -30.00  -0.13705  0.36936  0.04067
   -20.00  -0.15214  0.33447  0.05553
   -10.00  -0.06220  0.30281  0.02450
    -4.17  -0.01385  0.28437  -0.02612
    -3.17  0.00820  0.28435  -0.02650
    -2.12  0.03103  0.28433  -0.02681
    -1.08  0.05405  0.28433  -0.02716
    -0.05  0.07687  0.28435  -0.02735
    -0.01  0.07692  0.28435  -0.02735
     1.15  0.10388  0.28440  -0.02760
     2.30  0.12928  0.28443  -0.02781
     3.45  0.15476  0.28450  -0.02796
     4.60  0.17943  0.28455  -0.02792
     5.74  0.20332  0.28462  -0.02775
     6.89  0.22597  0.28474  -0.02734
     8.04  0.24456  0.28488  -0.02619
    10.66  0.25302  0.28733  -0.02037
    13.29  0.22146  0.30445  -0.01882
    15.91  0.21385  0.31504  -0.02047
    18.53  0.21873  0.32560  -0.02303
    21.15  0.21752  0.33885  -0.02719
    23.78  0.21102  0.34798  -0.03249
    26.40  0.20453  0.35712  -0.03778
    29.02  0.19804  0.36625  -0.04307
    31.64  0.19343  0.37668  -0.04697
    34.27  0.18979  0.38779  -0.05014
    36.89  0.18615  0.39890  -0.05331
    39.51  0.18252  0.41000  -0.05648
    42.13  0.17775  0.42163  -0.05920
    44.76  0.17275  0.43336  -0.06183
    47.38  0.16775  0.44509  -0.06446
    50.00  0.16275  0.45683  -0.06708
    60.00  0.13354  0.49845  -0.07604
    70.00  0.09447  0.53149  -0.08383
    80.00  0.04844  0.55166  -0.09023
    90.00  0.00008  0.55619  -0.09484
   100.00  -0.03377  0.55166  -0.09865
   110.00  -0.06607  0.53149  -0.09936
   120.00  -0.09334  0.49845  -0.09755
   130.00  -0.11384  0.45683  -0.09443
   140.00  -0.12719  0.41189  -0.09186
   150.00  -0.13705  0.36936  -0.09339
   160.00  -0.15253  0.33451  -0.10840
   170.00  -0.07613  0.31170  -0.09679
   180.00  0.00008  0.30375  -0.00008
EOT
