AeroDyn airfoil file.  Compatible with AeroDyn v13.0.
Interpolated thickness: 0.224

  1        Number of airfoil tables in this file
  9990     Reynolds number in millions.  For efficiency, make very large if only one table.
  0        Control setting
  9.40134  Stall angle (deg)
  -3.96981 Zero lift angle of attack (deg)
  6.43262  Cn slope for zero lift (dimensionless)
  1.50118  Cn at stall value for positive angle of attack
  -0.8     Cn at stall value for negative angle of attack
  -2.02    Angle of attack for minimum CD (deg)
  0.00965429 Minimum CD value
  -180.00  0.00000  0.12921  0.00000
  -170.00  0.39560  0.17001  0.40000
  -160.00  0.79220  0.28709  -0.14192
  -150.00  0.70946  0.46594  -0.06275
  -140.00  0.65846  0.68401  -0.00705
  -130.00  0.58923  0.91405  0.04684
  -120.00  0.48323  1.12664  0.10011
  -110.00  0.34200  1.29456  0.14913
  -100.00  0.17500  1.39578  0.18890
   -90.00  0.00000  1.41600  0.21444
   -80.00  -0.17500  1.39578  0.23454
   -70.00  -0.34200  1.29456  0.23848
   -60.00  -0.48323  1.12664  0.22946
   -50.00  -0.58923  0.91405  0.21339
   -40.00  -0.65846  0.68401  0.20006
   -30.00  -0.70946  0.46594  0.20734
   -20.00  -0.79043  0.28687  0.28341
   -10.00  -0.30874  0.10570  0.10987
    -6.04  -0.13409  0.03405  -0.07241
    -5.04  -0.07267  0.02078  -0.10943
    -4.09  -0.01262  0.00976  -0.14023
    -3.02  0.10758  0.00970  -0.14210
    -2.02  0.21866  0.00965  -0.14343
    -1.03  0.33005  0.00968  -0.14481
    -0.04  0.44155  0.00980  -0.14578
     1.21  0.58254  0.01003  -0.14679
     2.42  0.71726  0.01030  -0.14779
     3.63  0.85138  0.01068  -0.14840
     4.84  0.97893  0.01101  -0.14758
     6.05  1.10195  0.01159  -0.14586
     7.26  1.20663  0.01227  -0.14087
     9.40  1.28075  0.01974  -0.11965
    11.54  1.21321  0.06224  -0.10480
    13.67  1.20972  0.11076  -0.10604
    15.81  1.20067  0.15656  -0.10929
    17.95  1.17903  0.21787  -0.12159
    20.09  1.15782  0.28078  -0.13583
    22.22  1.11378  0.32674  -0.16035
    24.36  1.08611  0.36504  -0.18235
    26.50  1.05843  0.40334  -0.20435
    28.63  1.03076  0.44164  -0.22635
    30.77  1.00832  0.48356  -0.24446
    32.91  0.99196  0.52954  -0.25832
    35.04  0.97652  0.57611  -0.27160
    37.18  0.96108  0.62268  -0.28487
    39.32  0.94564  0.66925  -0.29815
    41.45  0.92626  0.71758  -0.30987
    43.59  0.90501  0.76670  -0.32088
    45.73  0.88375  0.81581  -0.33188
    47.86  0.86249  0.86493  -0.34289
    50.00  0.84123  0.91405  -0.35390
    60.00  0.69023  1.12664  -0.39956
    70.00  0.48823  1.29456  -0.43901
    80.00  0.25000  1.39578  -0.47101
    90.00  0.00000  1.41600  -0.49356
   100.00  -0.17500  1.39578  -0.51358
   110.00  -0.34200  1.29456  -0.51760
   120.00  -0.48323  1.12664  -0.50849
   130.00  -0.58923  0.91405  -0.49251
   140.00  -0.65846  0.68401  -0.47909
   150.00  -0.70946  0.46594  -0.48638
   160.00  -0.79220  0.28709  -0.56313
   170.00  -0.39560  0.17001  -0.50000
   180.00  0.00000  0.12921  0.00000
EOT
