AeroDyn airfoil file.  Compatible with AeroDyn v13.0.
Interpolated thickness: 0.324

  1        Number of airfoil tables in this file
  9990     Reynolds number in millions.  For efficiency, make very large if only one table.
  0        Control setting
  10.8085  Stall angle (deg)
  -3.54766 Zero lift angle of attack (deg)
  5.79144  Cn slope for zero lift (dimensionless)
  1.45111  Cn at stall value for positive angle of attack
  -0.8     Cn at stall value for negative angle of attack
  -2.12    Angle of attack for minimum CD (deg)
  0.0480237 Minimum CD value
  -180.00  0.00001  0.13733  -0.00001
  -170.00  0.35046  0.17388  0.35578
  -160.00  0.70181  0.27875  -0.12738
  -150.00  0.63065  0.43904  -0.05605
  -140.00  0.58528  0.63463  -0.00633
  -130.00  0.52391  0.84126  0.04179
  -120.00  0.42963  1.03267  0.08956
  -110.00  0.30421  1.18459  0.13385
  -100.00  0.15567  1.27737  0.17015
   -90.00  0.00001  1.29818  0.19398
   -80.00  -0.15565  1.27737  0.21159
   -70.00  -0.30419  1.18459  0.21480
   -60.00  -0.42960  1.03267  0.20652
   -50.00  -0.52389  0.84126  0.19212
   -40.00  -0.58526  0.63463  0.18037
   -30.00  -0.63063  0.43904  0.18740
   -20.00  -0.70000  0.27858  0.25571
   -10.00  -0.28640  0.13297  0.11304
    -4.17  -0.06403  0.04820  -0.11973
    -3.17  0.03737  0.04811  -0.12151
    -2.12  0.14233  0.04802  -0.12294
    -1.08  0.24817  0.04802  -0.12454
    -0.05  0.35313  0.04811  -0.12543
    -0.04  0.35338  0.04811  -0.12543
     1.17  0.47737  0.04831  -0.12657
     2.34  0.59415  0.04846  -0.12755
     3.51  0.71130  0.04877  -0.12822
     4.68  0.82478  0.04902  -0.12805
     5.85  0.93463  0.04935  -0.12725
     7.02  1.03878  0.04991  -0.12535
     8.20  1.12431  0.05051  -0.12009
    10.81  1.16317  0.06178  -0.09333
    13.42  1.01805  0.14051  -0.08620
    16.03  0.98307  0.18925  -0.09377
    18.65  1.00550  0.23779  -0.10553
    21.26  0.99992  0.29873  -0.12470
    23.87  0.97006  0.34073  -0.14904
    26.49  0.94020  0.38273  -0.17338
    29.10  0.91034  0.42472  -0.19772
    31.71  0.88914  0.47270  -0.21563
    34.32  0.87241  0.52378  -0.23021
    36.94  0.85569  0.57485  -0.24480
    39.55  0.83897  0.62593  -0.25939
    42.16  0.81704  0.67939  -0.27189
    44.77  0.79405  0.73335  -0.28397
    47.39  0.77105  0.78730  -0.29605
    50.00  0.74806  0.84126  -0.30812
    60.00  0.61375  1.03267  -0.34931
    70.00  0.43407  1.18459  -0.38515
    80.00  0.22238  1.27737  -0.41459
    90.00  0.00001  1.29818  -0.43576
   100.00  -0.15565  1.27737  -0.45329
   110.00  -0.30419  1.18459  -0.45658
   120.00  -0.42960  1.03267  -0.44822
   130.00  -0.52389  0.84126  -0.43390
   140.00  -0.58526  0.63463  -0.42207
   150.00  -0.63063  0.43904  -0.42909
   160.00  -0.70178  0.27875  -0.49812
   170.00  -0.35044  0.17388  -0.44475
   180.00  0.00001  0.13733  -0.00001
EOT
