AeroDyn airfoil file.  Compatible with AeroDyn v13.0.
Interpolated thickness: 0.992

  1        Number of airfoil tables in this file
  9990     Reynolds number in millions.  For efficiency, make very large if only one table.
  0        Control setting
  10.6272  Stall angle (deg)
  -0.603936 Zero lift angle of attack (deg)
  0.415163 Cn slope for zero lift (dimensionless)
  0.0813802 Cn at stall value for positive angle of attack
  -0.8     Cn at stall value for negative angle of attack
  -2.12    Angle of attack for minimum CD (deg)
  0.346426 Minimum CD value
  -180.00  0.00010  0.34748  -0.00010
  -170.00  0.00425  0.34792  0.00411
  -160.00  0.00840  0.34916  -0.00161
  -150.00  0.00756  0.35105  -0.00076
  -140.00  0.00703  0.35337  -0.00017
  -130.00  0.00630  0.35581  0.00040
  -120.00  0.00518  0.35808  0.00096
  -110.00  0.00370  0.35988  0.00149
  -100.00  0.00194  0.36097  0.00191
   -90.00  0.00010  0.36122  0.00220
   -80.00  -0.00174  0.36097  0.00241
   -70.00  -0.00350  0.35988  0.00244
   -60.00  -0.00499  0.35808  0.00235
   -50.00  -0.00610  0.35581  0.00217
   -40.00  -0.00683  0.35337  0.00204
   -30.00  -0.00736  0.35105  0.00212
   -20.00  -0.00819  0.34915  0.00293
   -10.00  -0.00329  0.34743  0.00124
    -4.17  -0.00066  0.34643  -0.00152
    -3.17  0.00054  0.34643  -0.00154
    -2.12  0.00178  0.34643  -0.00155
    -1.08  0.00304  0.34643  -0.00157
    -0.05  0.00428  0.34643  -0.00158
    -0.00  0.00428  0.34643  -0.00158
     1.14  0.00575  0.34643  -0.00160
     2.29  0.00713  0.34643  -0.00161
     3.43  0.00852  0.34644  -0.00162
     4.57  0.00986  0.34644  -0.00161
     5.72  0.01116  0.34644  -0.00160
     6.86  0.01239  0.34645  -0.00158
     8.00  0.01340  0.34646  -0.00152
    10.63  0.01386  0.34659  -0.00120
    13.25  0.01215  0.34752  -0.00112
    15.88  0.01173  0.34810  -0.00121
    18.50  0.01200  0.34867  -0.00135
    21.13  0.01193  0.34939  -0.00157
    23.75  0.01158  0.34989  -0.00186
    26.38  0.01123  0.35039  -0.00215
    29.00  0.01087  0.35088  -0.00244
    31.63  0.01062  0.35145  -0.00265
    34.25  0.01042  0.35206  -0.00282
    36.88  0.01023  0.35266  -0.00300
    39.50  0.01003  0.35327  -0.00317
    42.13  0.00977  0.35390  -0.00332
    44.75  0.00950  0.35454  -0.00346
    47.38  0.00922  0.35518  -0.00360
    50.00  0.00895  0.35581  -0.00375
    60.00  0.00736  0.35808  -0.00423
    70.00  0.00524  0.35988  -0.00466
    80.00  0.00273  0.36097  -0.00501
    90.00  0.00010  0.36122  -0.00526
   100.00  -0.00174  0.36097  -0.00546
   110.00  -0.00350  0.35988  -0.00550
   120.00  -0.00499  0.35808  -0.00540
   130.00  -0.00610  0.35581  -0.00523
   140.00  -0.00683  0.35337  -0.00509
   150.00  -0.00736  0.35105  -0.00518
   160.00  -0.00821  0.34916  -0.00599
   170.00  -0.00405  0.34792  -0.00536
   180.00  0.00010  0.34748  -0.00010
EOT
