AeroDyn airfoil file.  Compatible with AeroDyn v13.0.
Interpolated thickness: 0.59

  1        Number of airfoil tables in this file
  9990     Reynolds number in millions.  For efficiency, make very large if only one table.
  0        Control setting
  10.7363  Stall angle (deg)
  -3.35947 Zero lift angle of attack (deg)
  3.69816  Cn slope for zero lift (dimensionless)
  0.90981  Cn at stall value for positive angle of attack
  -0.8     Cn at stall value for negative angle of attack
  -2.12    Angle of attack for minimum CD (deg)
  0.166849 Minimum CD value
  -180.00  0.00005  0.22101  -0.00005
  -170.00  0.21260  0.24318  0.21574
  -160.00  0.42569  0.30679  -0.07730
  -150.00  0.38253  0.40400  -0.03403
  -140.00  0.35502  0.52263  -0.00388
  -130.00  0.31780  0.64795  0.02531
  -120.00  0.26061  0.76405  0.05428
  -110.00  0.18455  0.85619  0.08114
  -100.00  0.09445  0.91246  0.10316
   -90.00  0.00005  0.92508  0.11761
   -80.00  -0.09436  0.91246  0.12829
   -70.00  -0.18445  0.85619  0.13024
   -60.00  -0.26052  0.76405  0.12522
   -50.00  -0.31770  0.64795  0.11648
   -40.00  -0.35493  0.52263  0.10936
   -30.00  -0.38244  0.40400  0.11362
   -20.00  -0.42452  0.30668  0.15505
   -10.00  -0.17366  0.21837  0.06852
    -4.17  -0.03880  0.16696  -0.07266
    -3.17  0.02270  0.16690  -0.07374
    -2.12  0.08636  0.16685  -0.07460
    -1.08  0.15056  0.16685  -0.07557
    -0.05  0.21422  0.16690  -0.07611
    -0.03  0.21437  0.16690  -0.07611
     1.16  0.28957  0.16702  -0.07681
     2.32  0.36040  0.16712  -0.07740
     3.48  0.43145  0.16730  -0.07780
     4.64  0.50027  0.16745  -0.07770
     5.80  0.56690  0.16765  -0.07722
     6.96  0.63007  0.16799  -0.07606
     8.12  0.68194  0.16836  -0.07288
    10.74  0.70551  0.17519  -0.05665
    13.35  0.61749  0.22294  -0.05232
    15.97  0.59628  0.25250  -0.05691
    18.59  0.60989  0.28195  -0.06405
    21.21  0.60650  0.31890  -0.07567
    23.82  0.58839  0.34438  -0.09043
    26.44  0.57028  0.36985  -0.10519
    29.06  0.55217  0.39532  -0.11996
    31.68  0.53931  0.42442  -0.13082
    34.29  0.52917  0.45540  -0.13967
    36.91  0.51902  0.48638  -0.14851
    39.53  0.50888  0.51735  -0.15736
    42.15  0.49558  0.54978  -0.16494
    44.76  0.48164  0.58250  -0.17227
    47.38  0.46769  0.61523  -0.17959
    50.00  0.45374  0.64795  -0.18692
    60.00  0.37228  0.76405  -0.21190
    70.00  0.26331  0.85619  -0.23364
    80.00  0.13491  0.91246  -0.25149
    90.00  0.00005  0.92508  -0.26433
   100.00  -0.09436  0.91246  -0.27496
   110.00  -0.18445  0.85619  -0.27696
   120.00  -0.26052  0.76405  -0.27189
   130.00  -0.31770  0.64795  -0.26320
   140.00  -0.35493  0.52263  -0.25603
   150.00  -0.38244  0.40400  -0.26029
   160.00  -0.42560  0.30679  -0.30215
   170.00  -0.21251  0.24318  -0.26978
   180.00  0.00005  0.22101  -0.00005
EOT
