AeroDyn airfoil file.  Compatible with AeroDyn v13.0.
Interpolated thickness: 0.578

  1        Number of airfoil tables in this file
  9990     Reynolds number in millions.  For efficiency, make very large if only one table.
  0        Control setting
  10.7395  Stall angle (deg)
  -3.37098 Zero lift angle of attack (deg)
  3.7939   Cn slope for zero lift (dimensionless)
  0.934343 Cn at stall value for positive angle of attack
  -0.8     Cn at stall value for negative angle of attack
  -2.12    Angle of attack for minimum CD (deg)
  0.161488 Minimum CD value
  -180.00  0.00004  0.21724  -0.00004
  -170.00  0.21882  0.24006  0.22206
  -160.00  0.43815  0.30552  -0.07956
  -150.00  0.39373  0.40558  -0.03503
  -140.00  0.36541  0.52768  -0.00399
  -130.00  0.32709  0.65667  0.02605
  -120.00  0.26824  0.77616  0.05587
  -110.00  0.18994  0.87100  0.08352
  -100.00  0.09722  0.92892  0.10618
   -90.00  0.00004  0.94191  0.12106
   -80.00  -0.09713  0.92892  0.13205
   -70.00  -0.18986  0.87100  0.13405
   -60.00  -0.26815  0.77616  0.12889
   -50.00  -0.32701  0.65667  0.11989
   -40.00  -0.36532  0.52768  0.11256
   -30.00  -0.39364  0.40558  0.11695
   -20.00  -0.43695  0.30541  0.15959
   -10.00  -0.17875  0.21452  0.07053
    -4.17  -0.03993  0.16160  -0.07478
    -3.17  0.02337  0.16154  -0.07589
    -2.12  0.08889  0.16149  -0.07678
    -1.08  0.15496  0.16149  -0.07778
    -0.05  0.22048  0.16154  -0.07834
    -0.03  0.22064  0.16154  -0.07834
     1.16  0.29804  0.16167  -0.07905
     2.32  0.37094  0.16176  -0.07966
     3.48  0.44408  0.16195  -0.08008
     4.64  0.51491  0.16211  -0.07997
     5.80  0.58349  0.16231  -0.07947
     6.96  0.64851  0.16266  -0.07829
     8.12  0.70190  0.16304  -0.07500
    10.74  0.72616  0.17008  -0.05830
    13.36  0.63556  0.21922  -0.05385
    15.97  0.61373  0.24965  -0.05858
    18.59  0.62773  0.27995  -0.06592
    21.21  0.62425  0.31799  -0.07788
    23.83  0.60561  0.34421  -0.09308
    26.44  0.58697  0.37043  -0.10827
    29.06  0.56832  0.39665  -0.12346
    31.68  0.55509  0.42660  -0.13465
    34.30  0.54465  0.45848  -0.14375
    36.91  0.53421  0.49037  -0.15286
    39.53  0.52377  0.52225  -0.16196
    42.15  0.51008  0.55563  -0.16977
    44.77  0.49573  0.58931  -0.17731
    47.38  0.48138  0.62299  -0.18485
    50.00  0.46702  0.65667  -0.19239
    60.00  0.38318  0.77616  -0.21810
    70.00  0.27101  0.87100  -0.24047
    80.00  0.13886  0.92892  -0.25885
    90.00  0.00004  0.94191  -0.27207
   100.00  -0.09713  0.92892  -0.28301
   110.00  -0.18986  0.87100  -0.28506
   120.00  -0.26815  0.77616  -0.27984
   130.00  -0.32701  0.65667  -0.27090
   140.00  -0.36532  0.52768  -0.26352
   150.00  -0.39364  0.40558  -0.26790
   160.00  -0.43806  0.30552  -0.31099
   170.00  -0.21873  0.24006  -0.27768
   180.00  0.00004  0.21724  -0.00004
EOT
