AeroDyn airfoil file.  Compatible with AeroDyn v13.0.
Interpolated thickness: 0.343

  1        Number of airfoil tables in this file
  9990     Reynolds number in millions.  For efficiency, make very large if only one table.
  0        Control setting
  10.8033  Stall angle (deg)
  -3.5373  Zero lift angle of attack (deg)
  5.64392  Cn slope for zero lift (dimensionless)
  1.41262  Cn at stall value for positive angle of attack
  -0.8     Cn at stall value for negative angle of attack
  -2.12    Angle of attack for minimum CD (deg)
  0.0565112 Minimum CD value
  -180.00  0.00001  0.14330  -0.00001
  -170.00  0.34062  0.17883  0.34578
  -160.00  0.68208  0.28076  -0.12381
  -150.00  0.61293  0.43653  -0.05448
  -140.00  0.56884  0.62663  -0.00615
  -130.00  0.50919  0.82745  0.04062
  -120.00  0.41755  1.01348  0.08704
  -110.00  0.29566  1.16114  0.13009
  -100.00  0.15130  1.25130  0.16536
   -90.00  0.00001  1.27153  0.18853
   -80.00  -0.15127  1.25130  0.20564
   -70.00  -0.29564  1.16114  0.20876
   -60.00  -0.41753  1.01348  0.20072
   -50.00  -0.50916  0.82745  0.18671
   -40.00  -0.56881  0.62663  0.17530
   -30.00  -0.61290  0.43653  0.18213
   -20.00  -0.68033  0.28058  0.24852
   -10.00  -0.27835  0.13907  0.10986
    -4.17  -0.06223  0.05668  -0.11637
    -3.17  0.03632  0.05660  -0.11810
    -2.12  0.13833  0.05651  -0.11948
    -1.08  0.24120  0.05651  -0.12104
    -0.05  0.34321  0.05660  -0.12190
    -0.04  0.34345  0.05660  -0.12191
     1.17  0.46395  0.05679  -0.12302
     2.34  0.57745  0.05694  -0.12397
     3.51  0.69131  0.05723  -0.12461
     4.68  0.80160  0.05748  -0.12445
     5.85  0.90836  0.05780  -0.12368
     7.02  1.00959  0.05834  -0.12182
     8.19  1.09271  0.05893  -0.11672
    10.80  1.13048  0.06988  -0.09071
    13.42  0.98944  0.14640  -0.08378
    16.03  0.95544  0.19377  -0.09114
    18.64  0.97724  0.24095  -0.10257
    21.26  0.97182  0.30017  -0.12119
    23.87  0.94280  0.34099  -0.14485
    26.48  0.91378  0.38181  -0.16851
    29.10  0.88475  0.42262  -0.19216
    31.71  0.86415  0.46925  -0.20957
    34.32  0.84789  0.51889  -0.22375
    36.93  0.83164  0.56853  -0.23792
    39.55  0.81539  0.61817  -0.25210
    42.16  0.79408  0.67013  -0.26425
    44.77  0.77173  0.72257  -0.27599
    47.39  0.74938  0.77501  -0.28773
    50.00  0.72704  0.82745  -0.29947
    60.00  0.59650  1.01348  -0.33949
    70.00  0.42188  1.16114  -0.37433
    80.00  0.21613  1.25130  -0.40294
    90.00  0.00001  1.27153  -0.42352
   100.00  -0.15127  1.25130  -0.44055
   110.00  -0.29564  1.16114  -0.44375
   120.00  -0.41753  1.01348  -0.43562
   130.00  -0.50916  0.82745  -0.42170
   140.00  -0.56881  0.62663  -0.41021
   150.00  -0.61290  0.43653  -0.41704
   160.00  -0.68206  0.28076  -0.48412
   170.00  -0.34059  0.17883  -0.43225
   180.00  0.00001  0.14330  -0.00001
EOT
