AeroDyn airfoil file.  Compatible with AeroDyn v13.0.
Interpolated thickness: 0.197

  1        Number of airfoil tables in this file
  9990     Reynolds number in millions.  For efficiency, make very large if only one table.
  0        Control setting
  14.5218  Stall angle (deg)
  -4.74396 Zero lift angle of attack (deg)
  6.26996  Cn slope for zero lift (dimensionless)
  2.10828  Cn at stall value for positive angle of attack
  -0.8     Cn at stall value for negative angle of attack
  -4.09    Angle of attack for minimum CD (deg)
  0.00817834 Minimum CD value
  -180.00  0.00000  0.16010  0.00000
  -170.00  0.39830  0.20041  0.40000
  -160.00  0.79760  0.31609  -0.13976
  -150.00  0.71023  0.49267  -0.06232
  -140.00  0.65923  0.70766  -0.00698
  -130.00  0.58961  0.93387  0.04657
  -120.00  0.48361  1.14207  0.09910
  -110.00  0.34200  1.30513  0.14681
  -100.00  0.17500  1.40114  0.18485
   -90.00  0.00000  1.41600  0.20827
   -80.00  -0.17500  1.40114  0.22887
   -70.00  -0.34200  1.30513  0.23339
   -60.00  -0.48361  1.14207  0.22483
   -50.00  -0.58961  0.93387  0.20900
   -40.00  -0.65923  0.70766  0.19543
   -30.00  -0.71023  0.49267  0.20167
   -20.00  -0.79621  0.31583  0.27650
   -10.00  -0.28637  0.10520  0.08078
    -6.04  -0.10354  0.02188  -0.10910
    -5.04  -0.01083  0.01379  -0.13287
    -4.09  0.07219  0.00818  -0.14947
    -3.02  0.18979  0.00820  -0.15100
    -2.02  0.29833  0.00823  -0.15197
    -1.03  0.40652  0.00829  -0.15286
    -0.02  0.51628  0.00845  -0.15384
     0.94  0.62310  0.00866  -0.15408
     1.88  0.72614  0.00893  -0.15465
     2.83  0.82821  0.00929  -0.15535
     3.77  0.92694  0.00962  -0.15464
     4.71  1.02313  0.01006  -0.15352
     5.65  1.10981  0.01054  -0.15079
     7.87  1.23789  0.01612  -0.13544
    10.09  1.28326  0.03964  -0.12208
    12.30  1.35245  0.06724  -0.11700
    14.52  1.37167  0.10501  -0.11329
    16.74  1.26102  0.20778  -0.12656
    18.96  1.20328  0.27717  -0.13773
    21.17  1.13025  0.33696  -0.16669
    23.39  1.10121  0.37615  -0.18887
    25.61  1.07216  0.41534  -0.21105
    27.83  1.04311  0.45453  -0.23323
    30.04  1.01667  0.49553  -0.25346
    32.26  0.99808  0.54159  -0.26857
    34.48  0.98197  0.58922  -0.28211
    36.70  0.96587  0.63686  -0.29565
    38.91  0.94976  0.68449  -0.30920
    41.13  0.93055  0.73342  -0.32156
    43.35  0.90832  0.78354  -0.33280
    45.57  0.88608  0.83365  -0.34405
    47.78  0.86385  0.88376  -0.35530
    50.00  0.84161  0.93387  -0.36655
    60.00  0.69061  1.14207  -0.41113
    70.00  0.48861  1.30513  -0.44916
    80.00  0.25000  1.40114  -0.47931
    90.00  0.00000  1.41600  -0.49973
   100.00  -0.17500  1.40114  -0.52029
   110.00  -0.34200  1.30513  -0.52485
   120.00  -0.48361  1.14207  -0.51625
   130.00  -0.58961  0.93387  -0.50045
   140.00  -0.65923  0.70766  -0.48685
   150.00  -0.71023  0.49267  -0.49309
   160.00  -0.79760  0.31609  -0.56842
   170.00  -0.39830  0.20041  -0.50000
   180.00  0.00000  0.16010  0.00000
EOT
