AeroDyn airfoil file.  Compatible with AeroDyn v13.0.
Interpolated thickness: 0.406

  1        Number of airfoil tables in this file
  9990     Reynolds number in millions.  For efficiency, make very large if only one table.
  0        Control setting
  10.7862  Stall angle (deg)
  -3.50054 Zero lift angle of attack (deg)
  5.15259  Cn slope for zero lift (dimensionless)
  1.2848   Cn at stall value for positive angle of attack
  -0.8     Cn at stall value for negative angle of attack
  -2.12    Angle of attack for minimum CD (deg)
  0.0846539 Minimum CD value
  -180.00  0.00002  0.16312  -0.00002
  -170.00  0.30796  0.19525  0.31261
  -160.00  0.61669  0.28740  -0.11194
  -150.00  0.55416  0.42824  -0.04926
  -140.00  0.51430  0.60011  -0.00557
  -130.00  0.46037  0.78167  0.03671
  -120.00  0.37752  0.94986  0.07868
  -110.00  0.26732  1.08336  0.11761
  -100.00  0.13680  1.16487  0.14949
   -90.00  0.00002  1.18316  0.17044
   -80.00  -0.13675  1.16487  0.18592
   -70.00  -0.26728  1.08336  0.18873
   -60.00  -0.37748  0.94986  0.18146
   -50.00  -0.46033  0.78167  0.16880
   -40.00  -0.51426  0.60011  0.15848
   -30.00  -0.55412  0.42824  0.16466
   -20.00  -0.61508  0.28724  0.22468
   -10.00  -0.25165  0.15929  0.09932
    -4.17  -0.05625  0.08481  -0.10522
    -3.17  0.03285  0.08473  -0.10679
    -2.12  0.12507  0.08465  -0.10804
    -1.08  0.21808  0.08465  -0.10944
    -0.05  0.31031  0.08473  -0.11022
    -0.04  0.31052  0.08473  -0.11023
     1.17  0.41947  0.08490  -0.11123
     2.33  0.52209  0.08504  -0.11209
     3.50  0.62503  0.08531  -0.11267
     4.67  0.72474  0.08553  -0.11253
     5.84  0.82127  0.08582  -0.11183
     7.00  0.91279  0.08631  -0.11015
     8.17  0.98794  0.08684  -0.10554
    10.79  1.02209  0.09674  -0.08202
    13.40  0.89457  0.16592  -0.07576
    16.01  0.86383  0.20875  -0.08241
    18.63  0.88355  0.25141  -0.09275
    21.24  0.87864  0.30495  -0.10958
    23.86  0.85240  0.34185  -0.13097
    26.47  0.82616  0.37876  -0.15236
    29.09  0.79992  0.41566  -0.17375
    31.70  0.78129  0.45782  -0.18948
    34.31  0.76660  0.50270  -0.20230
    36.93  0.75190  0.54758  -0.21512
    39.54  0.73721  0.59246  -0.22793
    42.16  0.71794  0.63944  -0.23892
    44.77  0.69774  0.68685  -0.24954
    47.39  0.67753  0.73426  -0.26015
    50.00  0.65733  0.78167  -0.27076
    60.00  0.53931  0.94986  -0.30695
    70.00  0.38143  1.08336  -0.33845
    80.00  0.19542  1.16487  -0.36432
    90.00  0.00002  1.18316  -0.38292
   100.00  -0.13675  1.16487  -0.39831
   110.00  -0.26728  1.08336  -0.40121
   120.00  -0.37748  0.94986  -0.39386
   130.00  -0.46033  0.78167  -0.38128
   140.00  -0.51426  0.60011  -0.37088
   150.00  -0.55412  0.42824  -0.37706
   160.00  -0.61664  0.28740  -0.43771
   170.00  -0.30792  0.19525  -0.39081
   180.00  0.00002  0.16312  -0.00002
EOT
