AeroDyn airfoil file.  Compatible with AeroDyn v13.0.
Interpolated thickness: 0.353

  1        Number of airfoil tables in this file
  9990     Reynolds number in millions.  For efficiency, make very large if only one table.
  0        Control setting
  10.8006  Stall angle (deg)
  -3.53173 Zero lift angle of attack (deg)
  5.56616  Cn slope for zero lift (dimensionless)
  1.39235  Cn at stall value for positive angle of attack
  -0.8     Cn at stall value for negative angle of attack
  -2.12    Angle of attack for minimum CD (deg)
  0.0609783 Minimum CD value
  -180.00  0.00001  0.14645  -0.00001
  -170.00  0.33543  0.18144  0.34051
  -160.00  0.67170  0.28181  -0.12192
  -150.00  0.60360  0.43522  -0.05365
  -140.00  0.56018  0.62242  -0.00606
  -130.00  0.50144  0.82018  0.04000
  -120.00  0.41120  1.00338  0.08571
  -110.00  0.29116  1.14879  0.12811
  -100.00  0.14900  1.23758  0.16284
   -90.00  0.00001  1.25750  0.18566
   -80.00  -0.14897  1.23758  0.20251
   -70.00  -0.29114  1.14879  0.20558
   -60.00  -0.41117  1.00338  0.19766
   -50.00  -0.50141  0.82018  0.18387
   -40.00  -0.56015  0.62242  0.17263
   -30.00  -0.60357  0.43522  0.17936
   -20.00  -0.66997  0.28164  0.24474
   -10.00  -0.27411  0.14228  0.10819
    -4.17  -0.06128  0.06115  -0.11460
    -3.17  0.03577  0.06106  -0.11630
    -2.12  0.13623  0.06098  -0.11767
    -1.08  0.23753  0.06098  -0.11920
    -0.05  0.33799  0.06106  -0.12005
    -0.04  0.33822  0.06106  -0.12005
     1.17  0.45689  0.06125  -0.12115
     2.34  0.56866  0.06140  -0.12208
     3.51  0.68079  0.06169  -0.12272
     4.68  0.78940  0.06193  -0.12256
     5.85  0.89454  0.06225  -0.12180
     7.02  0.99423  0.06278  -0.11997
     8.19  1.07608  0.06336  -0.11494
    10.80  1.11328  0.07415  -0.08933
    13.41  0.97438  0.14950  -0.08251
    16.03  0.94090  0.19615  -0.08975
    18.64  0.96237  0.24261  -0.10101
    21.25  0.95703  0.30093  -0.11935
    23.87  0.92845  0.34113  -0.14265
    26.48  0.89987  0.38132  -0.16594
    29.09  0.87129  0.42152  -0.18924
    31.71  0.85100  0.46744  -0.20638
    34.32  0.83499  0.51632  -0.22034
    36.93  0.81898  0.56521  -0.23430
    39.55  0.80298  0.61409  -0.24826
    42.16  0.78199  0.66526  -0.26023
    44.77  0.75999  0.71690  -0.27179
    47.39  0.73798  0.76854  -0.28335
    50.00  0.71597  0.82018  -0.29491
    60.00  0.58742  1.00338  -0.33433
    70.00  0.41546  1.14879  -0.36863
    80.00  0.21284  1.23758  -0.39681
    90.00  0.00001  1.25750  -0.41707
   100.00  -0.14897  1.23758  -0.43385
   110.00  -0.29114  1.14879  -0.43700
   120.00  -0.41117  1.00338  -0.42899
   130.00  -0.50141  0.82018  -0.41529
   140.00  -0.56015  0.62242  -0.40396
   150.00  -0.60357  0.43522  -0.41069
   160.00  -0.67167  0.28181  -0.47675
   170.00  -0.33540  0.18144  -0.42567
   180.00  0.00001  0.14645  -0.00001
EOT
