AeroDyn airfoil file.  Compatible with AeroDyn v13.0.
Interpolated thickness: 0.498

  1        Number of airfoil tables in this file
  9990     Reynolds number in millions.  For efficiency, make very large if only one table.
  0        Control setting
  10.7612  Stall angle (deg)
  -3.43808 Zero lift angle of attack (deg)
  4.42902  Cn slope for zero lift (dimensionless)
  1.09762  Cn at stall value for positive angle of attack
  -0.8     Cn at stall value for negative angle of attack
  -2.12    Angle of attack for minimum CD (deg)
  0.125751 Minimum CD value
  -180.00  0.00003  0.19207  -0.00003
  -170.00  0.26028  0.21922  0.26418
  -160.00  0.52119  0.29709  -0.09462
  -150.00  0.46835  0.41612  -0.04165
  -140.00  0.43466  0.56137  -0.00472
  -130.00  0.38908  0.71481  0.03101
  -120.00  0.31907  0.85695  0.06648
  -110.00  0.22593  0.96977  0.09938
  -100.00  0.11563  1.03866  0.12632
   -90.00  0.00003  1.05412  0.14403
   -80.00  -0.11556  1.03866  0.15711
   -70.00  -0.22587  0.96977  0.15948
   -60.00  -0.31900  0.85695  0.15334
   -50.00  -0.38902  0.71481  0.14264
   -40.00  -0.43459  0.56137  0.13392
   -30.00  -0.46828  0.41612  0.13914
   -20.00  -0.51980  0.29696  0.18987
   -10.00  -0.21266  0.18883  0.08392
    -4.17  -0.04752  0.12588  -0.08894
    -3.17  0.02778  0.12582  -0.09026
    -2.12  0.10572  0.12575  -0.09132
    -1.08  0.18432  0.12575  -0.09251
    -0.05  0.26226  0.12582  -0.09317
    -0.03  0.26244  0.12582  -0.09317
     1.16  0.35452  0.12596  -0.09402
     2.33  0.44124  0.12608  -0.09474
     3.49  0.52824  0.12630  -0.09524
     4.65  0.61251  0.12649  -0.09511
     5.82  0.69409  0.12673  -0.09452
     6.98  0.77143  0.12715  -0.09311
     8.15  0.83494  0.12760  -0.08920
    10.76  0.86380  0.13597  -0.06933
    13.38  0.75603  0.19443  -0.06404
    15.99  0.73005  0.23063  -0.06966
    18.61  0.74672  0.26668  -0.07840
    21.22  0.74257  0.31193  -0.09263
    23.84  0.72040  0.34311  -0.11070
    26.46  0.69822  0.37430  -0.12878
    29.07  0.67604  0.40549  -0.14685
    31.69  0.66030  0.44112  -0.16015
    34.30  0.64788  0.47905  -0.17098
    36.92  0.63546  0.51698  -0.18182
    39.54  0.62305  0.55490  -0.19265
    42.15  0.60676  0.59461  -0.20193
    44.77  0.58969  0.63467  -0.21090
    47.38  0.57261  0.67474  -0.21987
    50.00  0.55554  0.71481  -0.22884
    60.00  0.45580  0.85695  -0.25942
    70.00  0.32237  0.96977  -0.28604
    80.00  0.16517  1.03866  -0.30791
    90.00  0.00003  1.05412  -0.32363
   100.00  -0.11556  1.03866  -0.33664
   110.00  -0.22587  0.96977  -0.33908
   120.00  -0.31900  0.85695  -0.33287
   130.00  -0.38902  0.71481  -0.32224
   140.00  -0.43459  0.56137  -0.31345
   150.00  -0.46828  0.41612  -0.31867
   160.00  -0.52112  0.29709  -0.36993
   170.00  -0.26021  0.21922  -0.33030
   180.00  0.00003  0.19207  -0.00003
EOT
