AeroDyn airfoil file.  Compatible with AeroDyn v13.0.
Interpolated thickness: 0.529

  1        Number of airfoil tables in this file
  9990     Reynolds number in millions.  For efficiency, make very large if only one table.
  0        Control setting
  10.7528  Stall angle (deg)
  -3.41383 Zero lift angle of attack (deg)
  4.18357  Cn slope for zero lift (dimensionless)
  1.03441  Cn at stall value for positive angle of attack
  -0.8     Cn at stall value for negative angle of attack
  -2.12    Angle of attack for minimum CD (deg)
  0.139599 Minimum CD value
  -180.00  0.00004  0.20182  -0.00004
  -170.00  0.24421  0.22729  0.24786
  -160.00  0.48901  0.30036  -0.08878
  -150.00  0.43943  0.41204  -0.03908
  -140.00  0.40782  0.54832  -0.00444
  -130.00  0.36506  0.69228  0.02909
  -120.00  0.29937  0.82565  0.06237
  -110.00  0.21199  0.93150  0.09323
  -100.00  0.10849  0.99614  0.11852
   -90.00  0.00004  1.01064  0.13513
   -80.00  -0.10842  0.99614  0.14740
   -70.00  -0.21191  0.93150  0.14963
   -60.00  -0.29929  0.82565  0.14386
   -50.00  -0.36499  0.69228  0.13383
   -40.00  -0.40775  0.54832  0.12564
   -30.00  -0.43936  0.41204  0.13054
   -20.00  -0.48769  0.30024  0.17814
   -10.00  -0.19952  0.19878  0.07873
    -4.17  -0.04458  0.13972  -0.08345
    -3.17  0.02607  0.13966  -0.08469
    -2.12  0.09920  0.13960  -0.08569
    -1.08  0.17294  0.13960  -0.08680
    -0.05  0.24607  0.13966  -0.08742
    -0.03  0.24624  0.13966  -0.08742
     1.16  0.33263  0.13980  -0.08822
     2.32  0.41400  0.13991  -0.08890
     3.49  0.49563  0.14012  -0.08936
     4.65  0.57469  0.14029  -0.08925
     5.81  0.65123  0.14052  -0.08869
     6.97  0.72380  0.14091  -0.08736
     8.14  0.78339  0.14133  -0.08370
    10.75  0.81047  0.14919  -0.06506
    13.37  0.70935  0.20404  -0.06009
    15.99  0.68498  0.23800  -0.06536
    18.60  0.70061  0.27182  -0.07356
    21.22  0.69672  0.31428  -0.08691
    23.84  0.67592  0.34354  -0.10387
    26.45  0.65511  0.37280  -0.12083
    29.07  0.63430  0.40206  -0.13779
    31.68  0.61953  0.43549  -0.15027
    34.30  0.60788  0.47108  -0.16043
    36.92  0.59623  0.50667  -0.17059
    39.53  0.58458  0.54225  -0.18076
    42.15  0.56930  0.57950  -0.18947
    44.77  0.55328  0.61710  -0.19788
    47.38  0.53726  0.65469  -0.20630
    50.00  0.52124  0.69228  -0.21471
    60.00  0.42766  0.82565  -0.24341
    70.00  0.30247  0.93150  -0.26838
    80.00  0.15497  0.99614  -0.28890
    90.00  0.00004  1.01064  -0.30365
   100.00  -0.10842  0.99614  -0.31586
   110.00  -0.21191  0.93150  -0.31815
   120.00  -0.29929  0.82565  -0.31232
   130.00  -0.36499  0.69228  -0.30235
   140.00  -0.40775  0.54832  -0.29410
   150.00  -0.43936  0.41204  -0.29900
   160.00  -0.48893  0.30036  -0.34709
   170.00  -0.24414  0.22729  -0.30991
   180.00  0.00004  0.20182  -0.00004
EOT
