AeroDyn airfoil file.  Compatible with AeroDyn v13.0.
Interpolated thickness: 0.896

  1        Number of airfoil tables in this file
  9990     Reynolds number in millions.  For efficiency, make very large if only one table.
  0        Control setting
  10.6532  Stall angle (deg)
  -2.66045 Zero lift angle of attack (deg)
  1.19765  Cn slope for zero lift (dimensionless)
  0.278296 Cn at stall value for positive angle of attack
  -0.8     Cn at stall value for negative angle of attack
  -2.12    Angle of attack for minimum CD (deg)
  0.303542 Minimum CD value
  -180.00  0.00009  0.31728  -0.00009
  -170.00  0.05400  0.32291  0.05465
  -160.00  0.10805  0.33904  -0.01968
  -150.00  0.09711  0.36370  -0.00871
  -140.00  0.09013  0.39379  -0.00106
  -130.00  0.08069  0.42558  0.00635
  -120.00  0.06618  0.45503  0.01369
  -110.00  0.04689  0.47840  0.02051
  -100.00  0.02403  0.49267  0.02609
   -90.00  0.00009  0.49587  0.02976
   -80.00  -0.02386  0.49267  0.03247
   -70.00  -0.04671  0.47840  0.03296
   -60.00  -0.06601  0.45503  0.03169
   -50.00  -0.08051  0.42558  0.02947
   -40.00  -0.08996  0.39379  0.02767
   -30.00  -0.09693  0.36370  0.02875
   -20.00  -0.10761  0.33901  0.03926
   -10.00  -0.04398  0.31661  0.01731
    -4.17  -0.00977  0.30357  -0.01851
    -3.17  0.00583  0.30356  -0.01878
    -2.12  0.02198  0.30354  -0.01900
    -1.08  0.03827  0.30354  -0.01924
    -0.05  0.05441  0.30356  -0.01938
    -0.01  0.05445  0.30356  -0.01938
     1.15  0.07353  0.30359  -0.01956
     2.29  0.09149  0.30361  -0.01971
     3.44  0.10952  0.30366  -0.01981
     4.59  0.12697  0.30370  -0.01978
     5.74  0.14387  0.30375  -0.01966
     6.88  0.15990  0.30383  -0.01937
     8.03  0.17305  0.30393  -0.01856
    10.65  0.17903  0.30566  -0.01444
    13.28  0.15671  0.31777  -0.01335
    15.90  0.15133  0.32527  -0.01451
    18.52  0.15478  0.33274  -0.01632
    21.15  0.15392  0.34211  -0.01927
    23.77  0.14932  0.34857  -0.02301
    26.39  0.14473  0.35503  -0.02676
    29.02  0.14014  0.36150  -0.03050
    31.64  0.13687  0.36888  -0.03326
    34.26  0.13430  0.37674  -0.03550
    36.88  0.13173  0.38459  -0.03775
    39.51  0.12916  0.39245  -0.03999
    42.13  0.12578  0.40068  -0.04191
    44.75  0.12225  0.40898  -0.04377
    47.38  0.11871  0.41728  -0.04563
    50.00  0.11517  0.42558  -0.04749
    60.00  0.09451  0.45503  -0.05382
    70.00  0.06687  0.47840  -0.05934
    80.00  0.03430  0.49267  -0.06387
    90.00  0.00009  0.49587  -0.06713
   100.00  -0.02386  0.49267  -0.06982
   110.00  -0.04671  0.47840  -0.07033
   120.00  -0.06601  0.45503  -0.06904
   130.00  -0.08051  0.42558  -0.06684
   140.00  -0.08996  0.39379  -0.06502
   150.00  -0.09693  0.36370  -0.06610
   160.00  -0.10788  0.33904  -0.07672
   170.00  -0.05383  0.32291  -0.06851
   180.00  0.00009  0.31728  -0.00009
EOT
