AeroDyn airfoil file.  Compatible with AeroDyn v13.0.
Interpolated thickness: 0.532

  1        Number of airfoil tables in this file
  9990     Reynolds number in millions.  For efficiency, make very large if only one table.
  0        Control setting
  10.752   Stall angle (deg)
  -3.41137 Zero lift angle of attack (deg)
  4.15977  Cn slope for zero lift (dimensionless)
  1.02829  Cn at stall value for positive angle of attack
  -0.8     Cn at stall value for negative angle of attack
  -2.12    Angle of attack for minimum CD (deg)
  0.140939 Minimum CD value
  -180.00  0.00004  0.20276  -0.00004
  -170.00  0.24266  0.22807  0.24628
  -160.00  0.48590  0.30068  -0.08822
  -150.00  0.43663  0.41164  -0.03883
  -140.00  0.40523  0.54705  -0.00441
  -130.00  0.36274  0.69010  0.02890
  -120.00  0.29746  0.82262  0.06197
  -110.00  0.21064  0.92780  0.09264
  -100.00  0.10780  0.99202  0.11776
   -90.00  0.00004  1.00643  0.13427
   -80.00  -0.10772  0.99202  0.14646
   -70.00  -0.21056  0.92780  0.14867
   -60.00  -0.29739  0.82262  0.14295
   -50.00  -0.36266  0.69010  0.13297
   -40.00  -0.40515  0.54705  0.12484
   -30.00  -0.43656  0.41164  0.12971
   -20.00  -0.48459  0.30055  0.17700
   -10.00  -0.19825  0.19975  0.07823
    -4.17  -0.04430  0.14106  -0.08292
    -3.17  0.02590  0.14100  -0.08416
    -2.12  0.09856  0.14094  -0.08514
    -1.08  0.17184  0.14094  -0.08625
    -0.05  0.24451  0.14100  -0.08686
    -0.03  0.24468  0.14100  -0.08687
     1.16  0.33051  0.14114  -0.08766
     2.32  0.41136  0.14124  -0.08833
     3.49  0.49247  0.14145  -0.08880
     4.65  0.57103  0.14163  -0.08868
     5.81  0.64708  0.14186  -0.08813
     6.97  0.71919  0.14224  -0.08681
     8.14  0.77840  0.14266  -0.08317
    10.75  0.80530  0.15046  -0.06465
    13.37  0.70483  0.20497  -0.05971
    15.99  0.68061  0.23871  -0.06495
    18.60  0.69615  0.27232  -0.07309
    21.22  0.69229  0.31451  -0.08636
    23.83  0.67161  0.34358  -0.10321
    26.45  0.65094  0.37266  -0.12006
    29.07  0.63026  0.40173  -0.13691
    31.68  0.61559  0.43495  -0.14931
    34.30  0.60401  0.47031  -0.15941
    36.92  0.59243  0.50567  -0.16951
    39.53  0.58085  0.54103  -0.17961
    42.15  0.56567  0.57804  -0.18826
    44.77  0.54976  0.61539  -0.19662
    47.38  0.53384  0.65275  -0.20499
    50.00  0.51792  0.69010  -0.21335
    60.00  0.42493  0.82262  -0.24186
    70.00  0.30054  0.92780  -0.26668
    80.00  0.15399  0.99202  -0.28706
    90.00  0.00004  1.00643  -0.30171
   100.00  -0.10772  0.99202  -0.31384
   110.00  -0.21056  0.92780  -0.31612
   120.00  -0.29739  0.82262  -0.31033
   130.00  -0.36266  0.69010  -0.30042
   140.00  -0.40515  0.54705  -0.29223
   150.00  -0.43656  0.41164  -0.29710
   160.00  -0.48582  0.30068  -0.34488
   170.00  -0.24258  0.22807  -0.30793
   180.00  0.00004  0.20276  -0.00004
EOT
