AeroDyn airfoil file.  Compatible with AeroDyn v13.0.
Interpolated thickness: 0.381

  1        Number of airfoil tables in this file
  9990     Reynolds number in millions.  For efficiency, make very large if only one table.
  0        Control setting
  10.793   Stall angle (deg)
  -3.51561 Zero lift angle of attack (deg)
  5.34797  Cn slope for zero lift (dimensionless)
  1.33556  Cn at stall value for positive angle of attack
  -0.8     Cn at stall value for negative angle of attack
  -2.12    Angle of attack for minimum CD (deg)
  0.0734862 Minimum CD value
  -180.00  0.00002  0.15526  -0.00002
  -170.00  0.32092  0.18873  0.32577
  -160.00  0.64264  0.28476  -0.11665
  -150.00  0.57748  0.43153  -0.05133
  -140.00  0.53594  0.61063  -0.00580
  -130.00  0.47974  0.79983  0.03826
  -120.00  0.39341  0.97511  0.08200
  -110.00  0.27857  1.11422  0.12256
  -100.00  0.14255  1.19917  0.15579
   -90.00  0.00002  1.21823  0.17762
   -80.00  -0.14251  1.19917  0.19374
   -70.00  -0.27853  1.11422  0.19668
   -60.00  -0.39337  0.97511  0.18910
   -50.00  -0.47971  0.79983  0.17591
   -40.00  -0.53591  0.61063  0.16516
   -30.00  -0.57744  0.43153  0.17159
   -20.00  -0.64097  0.28460  0.23414
   -10.00  -0.26224  0.15127  0.10350
    -4.17  -0.05862  0.07365  -0.10965
    -3.17  0.03423  0.07357  -0.11128
    -2.12  0.13033  0.07349  -0.11258
    -1.08  0.22726  0.07349  -0.11404
    -0.05  0.32336  0.07357  -0.11486
    -0.04  0.32359  0.07357  -0.11486
     1.17  0.43712  0.07375  -0.11591
     2.34  0.54406  0.07389  -0.11680
     3.51  0.65134  0.07417  -0.11741
     4.67  0.75524  0.07440  -0.11726
     5.84  0.85583  0.07470  -0.11653
     7.01  0.95120  0.07521  -0.11478
     8.18  1.02951  0.07577  -0.10997
    10.79  1.06510  0.08608  -0.08547
    13.41  0.93221  0.15817  -0.07894
    16.02  0.90018  0.20280  -0.08587
    18.63  0.92073  0.24726  -0.09664
    21.25  0.91562  0.30305  -0.11419
    23.86  0.88827  0.34151  -0.13648
    26.48  0.86093  0.37997  -0.15877
    29.09  0.83359  0.41842  -0.18105
    31.70  0.81417  0.46236  -0.19745
    34.32  0.79886  0.50913  -0.21081
    36.93  0.78355  0.55589  -0.22417
    39.54  0.76823  0.60266  -0.23752
    42.16  0.74816  0.65162  -0.24897
    44.77  0.72710  0.70102  -0.26003
    47.39  0.70605  0.75043  -0.27109
    50.00  0.68499  0.79983  -0.28215
    60.00  0.56201  0.97511  -0.31986
    70.00  0.39748  1.11422  -0.35269
    80.00  0.20364  1.19917  -0.37964
    90.00  0.00002  1.21823  -0.39903
   100.00  -0.14251  1.19917  -0.41507
   110.00  -0.27853  1.11422  -0.41809
   120.00  -0.39337  0.97511  -0.41043
   130.00  -0.47971  0.79983  -0.39732
   140.00  -0.53591  0.61063  -0.38649
   150.00  -0.57744  0.43153  -0.39292
   160.00  -0.64260  0.28476  -0.45612
   170.00  -0.32088  0.18873  -0.40726
   180.00  0.00002  0.15526  -0.00002
EOT
