AeroDyn airfoil file.  Compatible with AeroDyn v13.0.
Interpolated thickness: 0.522

  1        Number of airfoil tables in this file
  9990     Reynolds number in millions.  For efficiency, make very large if only one table.
  0        Control setting
  10.7547  Stall angle (deg)
  -3.41948 Zero lift angle of attack (deg)
  4.23907  Cn slope for zero lift (dimensionless)
  1.04869  Cn at stall value for positive angle of attack
  -0.8     Cn at stall value for negative angle of attack
  -2.12    Angle of attack for minimum CD (deg)
  0.136472 Minimum CD value
  -180.00  0.00004  0.19962  -0.00004
  -170.00  0.24784  0.22547  0.25154
  -160.00  0.49628  0.29962  -0.09010
  -150.00  0.44596  0.41296  -0.03966
  -140.00  0.41388  0.55126  -0.00450
  -130.00  0.37049  0.69737  0.02952
  -120.00  0.30382  0.83272  0.06330
  -110.00  0.21514  0.94014  0.09462
  -100.00  0.11010  1.00574  0.12028
   -90.00  0.00004  1.02046  0.13714
   -80.00  -0.11003  1.00574  0.14959
   -70.00  -0.21506  0.94014  0.15185
   -60.00  -0.30374  0.83272  0.14600
   -50.00  -0.37041  0.69737  0.13582
   -40.00  -0.41381  0.55126  0.12751
   -30.00  -0.44589  0.41296  0.13248
   -20.00  -0.49494  0.29950  0.18079
   -10.00  -0.20248  0.19654  0.07990
    -4.17  -0.04525  0.13660  -0.08469
    -3.17  0.02645  0.13654  -0.08595
    -2.12  0.10067  0.13647  -0.08696
    -1.08  0.17551  0.13647  -0.08809
    -0.05  0.24973  0.13654  -0.08872
    -0.03  0.24990  0.13654  -0.08872
     1.16  0.33757  0.13667  -0.08953
     2.33  0.42015  0.13678  -0.09022
     3.49  0.50299  0.13700  -0.09069
     4.65  0.58323  0.13718  -0.09057
     5.81  0.66091  0.13741  -0.09001
     6.98  0.73455  0.13780  -0.08866
     8.14  0.79503  0.13823  -0.08494
    10.75  0.82251  0.14620  -0.06602
    13.37  0.71989  0.20187  -0.06098
    15.99  0.69516  0.23633  -0.06633
    18.60  0.71102  0.27066  -0.07465
    21.22  0.70708  0.31375  -0.08820
    23.84  0.68596  0.34344  -0.10541
    26.45  0.66484  0.37314  -0.12262
    29.07  0.64373  0.40284  -0.13984
    31.69  0.62874  0.43676  -0.15250
    34.30  0.61691  0.47288  -0.16281
    36.92  0.60509  0.50899  -0.17313
    39.53  0.59326  0.54511  -0.18344
    42.15  0.57776  0.58291  -0.19228
    44.77  0.56150  0.62106  -0.20082
    47.38  0.54524  0.65922  -0.20936
    50.00  0.52898  0.69737  -0.21790
    60.00  0.43401  0.83272  -0.24702
    70.00  0.30696  0.94014  -0.27237
    80.00  0.15727  1.00574  -0.29319
    90.00  0.00004  1.02046  -0.30816
   100.00  -0.11003  1.00574  -0.32055
   110.00  -0.21506  0.94014  -0.32288
   120.00  -0.30374  0.83272  -0.31696
   130.00  -0.37041  0.69737  -0.30684
   140.00  -0.41381  0.55126  -0.29847
   150.00  -0.44589  0.41296  -0.30344
   160.00  -0.49620  0.29962  -0.35225
   170.00  -0.24777  0.22547  -0.31451
   180.00  0.00004  0.19962  -0.00004
EOT
