AeroDyn airfoil file.  Compatible with AeroDyn v13.0.
Interpolated thickness: 0.503

  1        Number of airfoil tables in this file
  9990     Reynolds number in millions.  For efficiency, make very large if only one table.
  0        Control setting
  10.7599  Stall angle (deg)
  -3.4343  Zero lift angle of attack (deg)
  4.38949  Cn slope for zero lift (dimensionless)
  1.08743  Cn at stall value for positive angle of attack
  -0.8     Cn at stall value for negative angle of attack
  -2.12    Angle of attack for minimum CD (deg)
  0.127985 Minimum CD value
  -180.00  0.00003  0.19364  -0.00003
  -170.00  0.25769  0.22052  0.26154
  -160.00  0.51600  0.29762  -0.09368
  -150.00  0.46368  0.41546  -0.04123
  -140.00  0.43033  0.55926  -0.00468
  -130.00  0.38521  0.71118  0.03070
  -120.00  0.31589  0.85190  0.06582
  -110.00  0.22368  0.96360  0.09838
  -100.00  0.11448  1.03181  0.12507
   -90.00  0.00003  1.04711  0.14259
   -80.00  -0.11441  1.03181  0.15554
   -70.00  -0.22362  0.96360  0.15789
   -60.00  -0.31582  0.85190  0.15181
   -50.00  -0.38514  0.71118  0.14122
   -40.00  -0.43026  0.55926  0.13259
   -30.00  -0.46361  0.41546  0.13775
   -20.00  -0.51462  0.29749  0.18798
   -10.00  -0.21054  0.19044  0.08308
    -4.17  -0.04705  0.12812  -0.08806
    -3.17  0.02750  0.12805  -0.08936
    -2.12  0.10467  0.12798  -0.09041
    -1.08  0.18249  0.12798  -0.09159
    -0.05  0.25965  0.12805  -0.09224
    -0.03  0.25983  0.12805  -0.09224
     1.16  0.35099  0.12819  -0.09308
     2.33  0.43685  0.12831  -0.09380
     3.49  0.52298  0.12853  -0.09429
     4.65  0.60641  0.12872  -0.09417
     5.82  0.68717  0.12896  -0.09358
     6.98  0.76375  0.12937  -0.09218
     8.14  0.82662  0.12982  -0.08832
    10.76  0.85520  0.13810  -0.06865
    13.38  0.74850  0.19598  -0.06340
    15.99  0.72278  0.23181  -0.06897
    18.61  0.73928  0.26751  -0.07762
    21.22  0.73518  0.31231  -0.09170
    23.84  0.71322  0.34318  -0.10960
    26.46  0.69127  0.37406  -0.12749
    29.07  0.66931  0.40494  -0.14539
    31.69  0.65372  0.44021  -0.15856
    34.30  0.64143  0.47776  -0.16928
    36.92  0.62914  0.51531  -0.18001
    39.54  0.61684  0.55286  -0.19073
    42.15  0.60072  0.59217  -0.19992
    44.77  0.58382  0.63184  -0.20880
    47.38  0.56691  0.67151  -0.21768
    50.00  0.55000  0.71118  -0.22656
    60.00  0.45126  0.85190  -0.25684
    70.00  0.31916  0.96360  -0.28319
    80.00  0.16352  1.03181  -0.30484
    90.00  0.00003  1.04711  -0.32040
   100.00  -0.11441  1.03181  -0.33329
   110.00  -0.22362  0.96360  -0.33571
   120.00  -0.31582  0.85190  -0.32956
   130.00  -0.38514  0.71118  -0.31903
   140.00  -0.43026  0.55926  -0.31033
   150.00  -0.46361  0.41546  -0.31550
   160.00  -0.51593  0.29762  -0.36625
   170.00  -0.25762  0.22052  -0.32701
   180.00  0.00003  0.19364  -0.00003
EOT
