AeroDyn airfoil file.  Compatible with AeroDyn v13.0.
Interpolated thickness: 0.721

  1        Number of airfoil tables in this file
  9990     Reynolds number in millions.  For efficiency, make very large if only one table.
  0        Control setting
  10.7007  Stall angle (deg)
  -3.19226 Zero lift angle of attack (deg)
  2.6447   Cn slope for zero lift (dimensionless)
  0.641281 Cn at stall value for positive angle of attack
  -0.8     Cn at stall value for negative angle of attack
  -2.12    Angle of attack for minimum CD (deg)
  0.225368 Minimum CD value
  -180.00  0.00006  0.26223  -0.00006
  -170.00  0.14470  0.27731  0.14678
  -160.00  0.28971  0.32059  -0.05263
  -150.00  0.26034  0.38675  -0.02319
  -140.00  0.24162  0.46747  -0.00267
  -130.00  0.21629  0.55275  0.01719
  -120.00  0.17738  0.63175  0.03690
  -110.00  0.12561  0.69445  0.05519
  -100.00  0.06431  0.73274  0.07016
   -90.00  0.00006  0.74133  0.08000
   -80.00  -0.06418  0.73274  0.08727
   -70.00  -0.12549  0.69445  0.08859
   -60.00  -0.17725  0.63175  0.08518
   -50.00  -0.21616  0.55275  0.07923
   -40.00  -0.24149  0.46747  0.07439
   -30.00  -0.26021  0.38675  0.07729
   -20.00  -0.28885  0.32052  0.10548
   -10.00  -0.11814  0.26043  0.04660
    -4.17  -0.02637  0.22544  -0.04948
    -3.17  0.01548  0.22540  -0.05021
    -2.12  0.05880  0.22537  -0.05080
    -1.08  0.10249  0.22537  -0.05146
    -0.05  0.14580  0.22540  -0.05183
    -0.02  0.14590  0.22540  -0.05183
     1.15  0.19708  0.22548  -0.05230
     2.31  0.24528  0.22555  -0.05270
     3.46  0.29363  0.22567  -0.05298
     4.62  0.34046  0.22578  -0.05291
     5.77  0.38580  0.22591  -0.05258
     6.93  0.42879  0.22614  -0.05179
     8.08  0.46408  0.22640  -0.04962
    10.70  0.48013  0.23105  -0.03858
    13.32  0.42023  0.26354  -0.03564
    15.94  0.40579  0.28365  -0.03876
    18.56  0.41505  0.30369  -0.04362
    21.18  0.41275  0.32884  -0.05152
    23.80  0.40042  0.34617  -0.06157
    26.42  0.38810  0.36351  -0.07162
    29.04  0.37577  0.38084  -0.08166
    31.66  0.36702  0.40064  -0.08905
    34.28  0.36012  0.42172  -0.09507
    36.90  0.35322  0.44280  -0.10109
    39.52  0.34632  0.46388  -0.10711
    42.14  0.33727  0.48595  -0.11227
    44.76  0.32778  0.50822  -0.11726
    47.38  0.31829  0.53048  -0.12224
    50.00  0.30880  0.55275  -0.12723
    60.00  0.25337  0.63175  -0.14423
    70.00  0.17921  0.69445  -0.15902
    80.00  0.09184  0.73274  -0.17117
    90.00  0.00006  0.74133  -0.17991
   100.00  -0.06418  0.73274  -0.18714
   110.00  -0.12549  0.69445  -0.18850
   120.00  -0.17725  0.63175  -0.18505
   130.00  -0.21616  0.55275  -0.17914
   140.00  -0.24149  0.46747  -0.17425
   150.00  -0.26021  0.38675  -0.17715
   160.00  -0.28958  0.32059  -0.20564
   170.00  -0.14458  0.27731  -0.18362
   180.00  0.00006  0.26223  -0.00006
EOT
