AeroDyn airfoil file.  Compatible with AeroDyn v13.0.
Interpolated thickness: 0.217

  1        Number of airfoil tables in this file
  9990     Reynolds number in millions.  For efficiency, make very large if only one table.
  0        Control setting
  9.00424  Stall angle (deg)
  -4.16557 Zero lift angle of attack (deg)
  6.39437  Cn slope for zero lift (dimensionless)
  1.46979  Cn at stall value for positive angle of attack
  -0.8     Cn at stall value for negative angle of attack
  -2.02    Angle of attack for minimum CD (deg)
  0.00928429 Minimum CD value
  -180.00  0.00000  0.13722  0.00000
  -170.00  0.39630  0.17789  0.40000
  -160.00  0.79360  0.29461  -0.14136
  -150.00  0.70966  0.47287  -0.06264
  -140.00  0.65866  0.69014  -0.00703
  -130.00  0.58933  0.91919  0.04677
  -120.00  0.48333  1.13064  0.09985
  -110.00  0.34200  1.29730  0.14853
  -100.00  0.17500  1.39717  0.18785
   -90.00  0.00000  1.41600  0.21284
   -80.00  -0.17500  1.39717  0.23307
   -70.00  -0.34200  1.29730  0.23716
   -60.00  -0.48333  1.13064  0.22826
   -50.00  -0.58933  0.91919  0.21225
   -40.00  -0.65866  0.69014  0.19886
   -30.00  -0.70966  0.47287  0.20587
   -20.00  -0.79193  0.29438  0.28162
   -10.00  -0.30294  0.10557  0.10233
    -6.04  -0.12617  0.03090  -0.08192
    -5.04  -0.05663  0.01897  -0.11551
    -4.09  0.00937  0.00935  -0.14263
    -3.02  0.12889  0.00931  -0.14441
    -2.02  0.23931  0.00928  -0.14564
    -1.03  0.34987  0.00932  -0.14690
    -0.03  0.46093  0.00945  -0.14787
     1.14  0.59305  0.00968  -0.14868
     2.28  0.71956  0.00994  -0.14957
     3.42  0.84538  0.01032  -0.15020
     4.56  0.96545  0.01065  -0.14941
     5.71  1.08152  0.01120  -0.14785
     6.85  1.18153  0.01182  -0.14344
     9.00  1.26964  0.01880  -0.12374
    11.16  1.23137  0.05638  -0.10928
    13.32  1.24673  0.09948  -0.10888
    15.48  1.24500  0.14319  -0.11033
    17.63  1.20028  0.21526  -0.12288
    19.79  1.16960  0.27985  -0.13632
    21.95  1.11805  0.32939  -0.16200
    24.11  1.09002  0.36792  -0.18404
    26.27  1.06199  0.40645  -0.20609
    28.42  1.03396  0.44499  -0.22813
    30.58  1.01048  0.48666  -0.24680
    32.74  0.99354  0.53267  -0.26098
    34.90  0.97793  0.57951  -0.27432
    37.05  0.96232  0.62635  -0.28767
    39.21  0.94671  0.67320  -0.30102
    41.37  0.92738  0.72169  -0.31290
    43.53  0.90586  0.77106  -0.32397
    45.68  0.88435  0.82044  -0.33504
    47.84  0.86284  0.86981  -0.34611
    50.00  0.84133  0.91919  -0.35718
    60.00  0.69033  1.13064  -0.40256
    70.00  0.48833  1.29730  -0.44164
    80.00  0.25000  1.39717  -0.47316
    90.00  0.00000  1.41600  -0.49516
   100.00  -0.17500  1.39717  -0.51532
   110.00  -0.34200  1.29730  -0.51948
   120.00  -0.48333  1.13064  -0.51050
   130.00  -0.58933  0.91919  -0.49457
   140.00  -0.65866  0.69014  -0.48110
   150.00  -0.70966  0.47287  -0.48812
   160.00  -0.79360  0.29461  -0.56450
   170.00  -0.39630  0.17789  -0.50000
   180.00  0.00000  0.13722  0.00000
EOT
