AeroDyn airfoil file.  Compatible with AeroDyn v13.0.
Interpolated thickness: 0.724

  1        Number of airfoil tables in this file
  9990     Reynolds number in millions.  For efficiency, make very large if only one table.
  0        Control setting
  10.6999  Stall angle (deg)
  -3.18712 Zero lift angle of attack (deg)
  2.62039  Cn slope for zero lift (dimensionless)
  0.635116 Cn at stall value for positive angle of attack
  -0.8     Cn at stall value for negative angle of attack
  -2.12    Angle of attack for minimum CD (deg)
  0.226708 Minimum CD value
  -180.00  0.00006  0.26317  -0.00006
  -170.00  0.14315  0.27809  0.14520
  -160.00  0.28660  0.32091  -0.05207
  -150.00  0.25754  0.38635  -0.02294
  -140.00  0.23902  0.46621  -0.00264
  -130.00  0.21396  0.55057  0.01700
  -120.00  0.17547  0.62872  0.03651
  -110.00  0.12426  0.69075  0.05459
  -100.00  0.06362  0.72863  0.06941
   -90.00  0.00006  0.73713  0.07914
   -80.00  -0.06349  0.72863  0.08633
   -70.00  -0.12414  0.69075  0.08764
   -60.00  -0.17534  0.62872  0.08426
   -50.00  -0.21384  0.55057  0.07838
   -40.00  -0.23889  0.46621  0.07358
   -30.00  -0.25742  0.38635  0.07645
   -20.00  -0.28574  0.32084  0.10434
   -10.00  -0.11687  0.26139  0.04609
    -4.17  -0.02608  0.22678  -0.04894
    -3.17  0.01532  0.22674  -0.04967
    -2.12  0.05817  0.22671  -0.05025
    -1.08  0.10138  0.22671  -0.05091
    -0.05  0.14424  0.22674  -0.05127
    -0.02  0.14434  0.22674  -0.05127
     1.15  0.19496  0.22682  -0.05174
     2.31  0.24264  0.22689  -0.05213
     3.46  0.29047  0.22701  -0.05241
     4.62  0.33680  0.22711  -0.05234
     5.77  0.38165  0.22725  -0.05201
     6.93  0.42418  0.22748  -0.05124
     8.08  0.45910  0.22772  -0.04909
    10.70  0.47496  0.23233  -0.03817
    13.32  0.41571  0.26447  -0.03526
    15.94  0.40143  0.28437  -0.03834
    18.56  0.41059  0.30419  -0.04315
    21.18  0.40831  0.32907  -0.05097
    23.80  0.39612  0.34621  -0.06091
    26.42  0.38393  0.36336  -0.07085
    29.04  0.37174  0.38051  -0.08078
    31.66  0.36308  0.40010  -0.08810
    34.28  0.35625  0.42095  -0.09405
    36.90  0.34942  0.44180  -0.10001
    39.52  0.34260  0.46266  -0.10596
    42.14  0.33364  0.48449  -0.11107
    44.76  0.32426  0.50651  -0.11600
    47.38  0.31487  0.52854  -0.12093
    50.00  0.30548  0.55057  -0.12586
    60.00  0.25064  0.62872  -0.14268
    70.00  0.17728  0.69075  -0.15731
    80.00  0.09085  0.72863  -0.16933
    90.00  0.00006  0.73713  -0.17797
   100.00  -0.06349  0.72863  -0.18513
   110.00  -0.12414  0.69075  -0.18647
   120.00  -0.17534  0.62872  -0.18306
   130.00  -0.21384  0.55057  -0.17721
   140.00  -0.23889  0.46621  -0.17238
   150.00  -0.25742  0.38635  -0.17525
   160.00  -0.28647  0.32091  -0.20343
   170.00  -0.14302  0.27809  -0.18164
   180.00  0.00006  0.26317  -0.00006
EOT
