AeroDyn airfoil file.  Compatible with AeroDyn v13.0.
Interpolated thickness: 0.914

  1        Number of airfoil tables in this file
  9990     Reynolds number in millions.  For efficiency, make very large if only one table.
  0        Control setting
  10.6483  Stall angle (deg)
  -2.50707 Zero lift angle of attack (deg)
  1.05138  Cn slope for zero lift (dimensionless)
  0.241401 Cn at stall value for positive angle of attack
  -0.8     Cn at stall value for negative angle of attack
  -2.12    Angle of attack for minimum CD (deg)
  0.311583 Minimum CD value
  -180.00  0.00009  0.32294  -0.00009
  -170.00  0.04467  0.32759  0.04517
  -160.00  0.08937  0.34094  -0.01629
  -150.00  0.08032  0.36133  -0.00722
  -140.00  0.07455  0.38621  -0.00089
  -130.00  0.06674  0.41250  0.00523
  -120.00  0.05474  0.43685  0.01131
  -110.00  0.03879  0.45618  0.01694
  -100.00  0.01989  0.46798  0.02156
   -90.00  0.00009  0.47063  0.02459
   -80.00  -0.01971  0.46798  0.02683
   -70.00  -0.03861  0.45618  0.02724
   -60.00  -0.05457  0.43685  0.02619
   -50.00  -0.06656  0.41250  0.02435
   -40.00  -0.07437  0.38621  0.02286
   -30.00  -0.08014  0.36133  0.02375
   -20.00  -0.08897  0.34091  0.03244
   -10.00  -0.03635  0.32239  0.01429
    -4.17  -0.00806  0.31161  -0.01532
    -3.17  0.00484  0.31159  -0.01555
    -2.12  0.01819  0.31158  -0.01573
    -1.08  0.03166  0.31158  -0.01593
    -0.05  0.04501  0.31159  -0.01604
    -0.01  0.04504  0.31159  -0.01604
     1.15  0.06082  0.31162  -0.01619
     2.29  0.07567  0.31164  -0.01631
     3.44  0.09058  0.31168  -0.01640
     4.59  0.10501  0.31171  -0.01638
     5.73  0.11899  0.31175  -0.01628
     6.88  0.13224  0.31182  -0.01603
     8.02  0.14312  0.31190  -0.01536
    10.65  0.14806  0.31333  -0.01196
    13.27  0.12960  0.32335  -0.01105
    15.90  0.12515  0.32955  -0.01202
    18.52  0.12801  0.33573  -0.01351
    21.14  0.12730  0.34348  -0.01595
    23.77  0.12350  0.34882  -0.01905
    26.39  0.11970  0.35416  -0.02214
    29.01  0.11590  0.35951  -0.02524
    31.64  0.11320  0.36561  -0.02752
    34.26  0.11107  0.37211  -0.02937
    36.88  0.10895  0.37861  -0.03123
    39.51  0.10682  0.38510  -0.03309
    42.13  0.10403  0.39190  -0.03468
    44.75  0.10111  0.39877  -0.03621
    47.38  0.09818  0.40563  -0.03775
    50.00  0.09525  0.41250  -0.03929
    60.00  0.07817  0.43685  -0.04453
    70.00  0.05531  0.45618  -0.04909
    80.00  0.02838  0.46798  -0.05283
    90.00  0.00009  0.47063  -0.05552
   100.00  -0.01971  0.46798  -0.05775
   110.00  -0.03861  0.45618  -0.05817
   120.00  -0.05457  0.43685  -0.05711
   130.00  -0.06656  0.41250  -0.05529
   140.00  -0.07437  0.38621  -0.05378
   150.00  -0.08014  0.36133  -0.05468
   160.00  -0.08919  0.34094  -0.06346
   170.00  -0.04450  0.32759  -0.05667
   180.00  0.00009  0.32294  -0.00009
EOT
