AeroDyn airfoil file.  Compatible with AeroDyn v13.0.
Interpolated thickness: 0.445

  1        Number of airfoil tables in this file
  9990     Reynolds number in millions.  For efficiency, make very large if only one table.
  0        Control setting
  10.7756  Stall angle (deg)
  -3.47556 Zero lift angle of attack (deg)
  4.84674  Cn slope for zero lift (dimensionless)
  1.20553  Cn at stall value for positive angle of attack
  -0.8     Cn at stall value for negative angle of attack
  -2.12    Angle of attack for minimum CD (deg)
  0.102076 Minimum CD value
  -180.00  0.00003  0.17539  -0.00003
  -170.00  0.28775  0.20541  0.29208
  -160.00  0.57620  0.29151  -0.10460
  -150.00  0.51778  0.42310  -0.04603
  -140.00  0.48054  0.58368  -0.00521
  -130.00  0.43015  0.75332  0.03430
  -120.00  0.35274  0.91048  0.07351
  -110.00  0.24978  1.03521  0.10988
  -100.00  0.12782  1.11137  0.13967
   -90.00  0.00003  1.12846  0.15924
   -80.00  -0.12777  1.11137  0.17370
   -70.00  -0.24972  1.03521  0.17633
   -60.00  -0.35269  0.91048  0.16954
   -50.00  -0.43010  0.75332  0.15771
   -40.00  -0.48049  0.58368  0.14807
   -30.00  -0.51773  0.42310  0.15384
   -20.00  -0.57469  0.29136  0.20992
   -10.00  -0.23512  0.17182  0.09279
    -4.17  -0.05255  0.10222  -0.09832
    -3.17  0.03070  0.10215  -0.09978
    -2.12  0.11687  0.10208  -0.10095
    -1.08  0.20377  0.10208  -0.10226
    -0.05  0.28994  0.10215  -0.10299
    -0.03  0.29014  0.10215  -0.10300
     1.17  0.39194  0.10231  -0.10393
     2.33  0.48782  0.10244  -0.10474
     3.50  0.58400  0.10269  -0.10528
     4.66  0.67716  0.10289  -0.10515
     5.83  0.76735  0.10316  -0.10449
     6.99  0.85287  0.10362  -0.10293
     8.16  0.92308  0.10412  -0.09861
    10.78  0.95499  0.11337  -0.07664
    13.39  0.83584  0.17801  -0.07079
    16.01  0.80712  0.21802  -0.07700
    18.62  0.82554  0.25788  -0.08666
    21.24  0.82096  0.30791  -0.10239
    23.85  0.79644  0.34239  -0.12238
    26.47  0.77193  0.37687  -0.14236
    29.08  0.74741  0.41135  -0.16234
    31.70  0.73000  0.45074  -0.17705
    34.31  0.71627  0.49267  -0.18902
    36.93  0.70254  0.53461  -0.20100
    39.54  0.68881  0.57654  -0.21298
    42.16  0.67081  0.62043  -0.22324
    44.77  0.65193  0.66473  -0.23316
    47.39  0.63306  0.70903  -0.24307
    50.00  0.61418  0.75332  -0.25299
    60.00  0.50391  0.91048  -0.28680
    70.00  0.35640  1.03521  -0.31623
    80.00  0.18259  1.11137  -0.34040
    90.00  0.00003  1.12846  -0.35778
   100.00  -0.12777  1.11137  -0.37217
   110.00  -0.24972  1.03521  -0.37487
   120.00  -0.35269  0.91048  -0.36801
   130.00  -0.43010  0.75332  -0.35625
   140.00  -0.48049  0.58368  -0.34654
   150.00  -0.51773  0.42310  -0.35231
   160.00  -0.57615  0.29151  -0.40897
   170.00  -0.28770  0.20541  -0.36516
   180.00  0.00003  0.17539  -0.00003
EOT
