AeroDyn airfoil file.  Compatible with AeroDyn v13.0.
Interpolated thickness: 0.985

  1        Number of airfoil tables in this file
  9990     Reynolds number in millions.  For efficiency, make very large if only one table.
  0        Control setting
  10.6291  Stall angle (deg)
  -0.98384 Zero lift angle of attack (deg)
  0.472415 Cn slope for zero lift (dimensionless)
  0.0957508 Cn at stall value for positive angle of attack
  -0.8     Cn at stall value for negative angle of attack
  -2.12    Angle of attack for minimum CD (deg)
  0.343299 Minimum CD value
  -180.00  0.00010  0.34528  -0.00010
  -170.00  0.00787  0.34609  0.00780
  -160.00  0.01567  0.34842  -0.00292
  -150.00  0.01409  0.35198  -0.00134
  -140.00  0.01308  0.35632  -0.00024
  -130.00  0.01172  0.36090  0.00083
  -120.00  0.00963  0.36515  0.00189
  -110.00  0.00685  0.36852  0.00287
  -100.00  0.00355  0.37058  0.00368
   -90.00  0.00010  0.37104  0.00421
   -80.00  -0.00336  0.37058  0.00460
   -70.00  -0.00665  0.36852  0.00467
   -60.00  -0.00943  0.36515  0.00448
   -50.00  -0.01153  0.36090  0.00417
   -40.00  -0.01289  0.35632  0.00390
   -30.00  -0.01390  0.35198  0.00406
   -20.00  -0.01543  0.34842  0.00558
   -10.00  -0.00626  0.34518  0.00241
    -4.17  -0.00132  0.34330  -0.00275
    -3.17  0.00093  0.34330  -0.00279
    -2.12  0.00326  0.34330  -0.00283
    -1.08  0.00560  0.34330  -0.00286
    -0.05  0.00793  0.34330  -0.00288
    -0.00  0.00794  0.34330  -0.00288
     1.14  0.01069  0.34331  -0.00291
     2.29  0.01328  0.34331  -0.00293
     3.43  0.01588  0.34332  -0.00294
     4.57  0.01840  0.34332  -0.00294
     5.72  0.02084  0.34333  -0.00292
     6.86  0.02315  0.34334  -0.00288
     8.00  0.02505  0.34335  -0.00276
    10.63  0.02591  0.34360  -0.00217
    13.25  0.02269  0.34535  -0.00201
    15.88  0.02191  0.34643  -0.00218
    18.50  0.02241  0.34751  -0.00244
    21.13  0.02229  0.34886  -0.00286
    23.75  0.02162  0.34979  -0.00340
    26.38  0.02096  0.35073  -0.00394
    29.00  0.02030  0.35166  -0.00448
    31.63  0.01983  0.35272  -0.00488
    34.25  0.01946  0.35386  -0.00521
    36.88  0.01908  0.35499  -0.00553
    39.50  0.01871  0.35612  -0.00585
    42.13  0.01823  0.35731  -0.00613
    44.75  0.01772  0.35851  -0.00640
    47.38  0.01721  0.35970  -0.00667
    50.00  0.01670  0.36090  -0.00693
    60.00  0.01372  0.36515  -0.00785
    70.00  0.00973  0.36852  -0.00864
    80.00  0.00503  0.37058  -0.00930
    90.00  0.00010  0.37104  -0.00977
   100.00  -0.00336  0.37058  -0.01016
   110.00  -0.00665  0.36852  -0.01023
   120.00  -0.00943  0.36515  -0.01004
   130.00  -0.01153  0.36090  -0.00973
   140.00  -0.01289  0.35632  -0.00946
   150.00  -0.01390  0.35198  -0.00962
   160.00  -0.01547  0.34842  -0.01115
   170.00  -0.00768  0.34609  -0.00997
   180.00  0.00010  0.34528  -0.00010
EOT
