AeroDyn airfoil file.  Compatible with AeroDyn v13.0.
Interpolated thickness: 0.201

  1        Number of airfoil tables in this file
  9990     Reynolds number in millions.  For efficiency, make very large if only one table.
  0        Control setting
  14.7129  Stall angle (deg)
  -4.62683 Zero lift angle of attack (deg)
  6.29413  Cn slope for zero lift (dimensionless)
  2.12454  Cn at stall value for positive angle of attack
  -0.8     Cn at stall value for negative angle of attack
  -4.09    Angle of attack for minimum CD (deg)
  0.00841217 Minimum CD value
  -180.00  0.00000  0.15553  0.00000
  -170.00  0.39790  0.19590  0.40000
  -160.00  0.79680  0.31180  -0.14008
  -150.00  0.71011  0.48871  -0.06239
  -140.00  0.65911  0.70415  -0.00699
  -130.00  0.58956  0.93094  0.04661
  -120.00  0.48356  1.13979  0.09925
  -110.00  0.34200  1.30357  0.14716
  -100.00  0.17500  1.40034  0.18545
   -90.00  0.00000  1.41600  0.20919
   -80.00  -0.17500  1.40034  0.22971
   -70.00  -0.34200  1.30357  0.23415
   -60.00  -0.48356  1.13979  0.22551
   -50.00  -0.58956  0.93094  0.20965
   -40.00  -0.65911  0.70415  0.19611
   -30.00  -0.71011  0.48871  0.20251
   -20.00  -0.79536  0.31154  0.27753
   -10.00  -0.28969  0.10528  0.08509
    -6.04  -0.10807  0.02368  -0.10367
    -5.04  -0.01999  0.01483  -0.12940
    -4.09  0.05962  0.00841  -0.14810
    -3.02  0.17761  0.00842  -0.14968
    -2.02  0.28652  0.00844  -0.15070
    -1.03  0.39519  0.00850  -0.15167
    -0.02  0.50521  0.00865  -0.15265
     0.98  0.61709  0.00887  -0.15300
     1.96  0.72482  0.00914  -0.15363
     2.95  0.83164  0.00950  -0.15432
     3.93  0.93465  0.00983  -0.15360
     4.91  1.03481  0.01029  -0.15239
     5.89  1.12416  0.01079  -0.14932
     8.10  1.24424  0.01665  -0.13310
    10.30  1.27288  0.04299  -0.11952
    12.51  1.33131  0.07369  -0.11538
    14.71  1.34634  0.11265  -0.11269
    16.92  1.24888  0.20928  -0.12582
    19.12  1.19655  0.27771  -0.13745
    21.33  1.12781  0.33545  -0.16576
    23.53  1.09897  0.37451  -0.18791
    25.74  1.07012  0.41356  -0.21006
    27.95  1.04128  0.45262  -0.23221
    30.15  1.01544  0.49376  -0.25213
    32.36  0.99717  0.53981  -0.26705
    34.56  0.98116  0.58728  -0.28055
    36.77  0.96516  0.63476  -0.29406
    38.97  0.94915  0.68223  -0.30756
    41.18  0.92992  0.73108  -0.31983
    43.38  0.90783  0.78104  -0.33104
    45.59  0.88574  0.83101  -0.34225
    47.79  0.86365  0.88097  -0.35346
    50.00  0.84156  0.93094  -0.36467
    60.00  0.69056  1.13979  -0.40941
    70.00  0.48856  1.30357  -0.44765
    80.00  0.25000  1.40034  -0.47808
    90.00  0.00000  1.41600  -0.49881
   100.00  -0.17500  1.40034  -0.51929
   110.00  -0.34200  1.30357  -0.52377
   120.00  -0.48356  1.13979  -0.51510
   130.00  -0.58956  0.93094  -0.49928
   140.00  -0.65911  0.70415  -0.48570
   150.00  -0.71011  0.48871  -0.49209
   160.00  -0.79680  0.31180  -0.56763
   170.00  -0.39790  0.19590  -0.50000
   180.00  0.00000  0.15553  0.00000
EOT
