AeroDyn airfoil file.  Compatible with AeroDyn v13.0.
Interpolated thickness: 0.229

  1        Number of airfoil tables in this file
  9990     Reynolds number in millions.  For efficiency, make very large if only one table.
  0        Control setting
  9.68499  Stall angle (deg)
  -3.83163 Zero lift angle of attack (deg)
  6.45897  Cn slope for zero lift (dimensionless)
  1.52373  Cn at stall value for positive angle of attack
  -0.8     Cn at stall value for negative angle of attack
  -2.02    Angle of attack for minimum CD (deg)
  0.00991857 Minimum CD value
  -180.00  0.00000  0.12349  0.00000
  -170.00  0.39510  0.16438  0.40000
  -160.00  0.79120  0.28172  -0.14232
  -150.00  0.70931  0.46099  -0.06283
  -140.00  0.65831  0.67963  -0.00707
  -130.00  0.58916  0.91038  0.04689
  -120.00  0.48316  1.12379  0.10029
  -110.00  0.34200  1.29261  0.14956
  -100.00  0.17500  1.39478  0.18965
   -90.00  0.00000  1.41600  0.21559
   -80.00  -0.17500  1.39478  0.23559
   -70.00  -0.34200  1.29261  0.23943
   -60.00  -0.48316  1.12379  0.23031
   -50.00  -0.58916  0.91038  0.21421
   -40.00  -0.65831  0.67963  0.20091
   -30.00  -0.70931  0.46099  0.20839
   -20.00  -0.78936  0.28150  0.28469
   -10.00  -0.31289  0.10580  0.11525
    -6.04  -0.13974  0.03631  -0.06561
    -5.04  -0.08412  0.02207  -0.10509
    -4.09  -0.02833  0.01005  -0.13852
    -3.02  0.09235  0.00998  -0.14045
    -2.02  0.20390  0.00992  -0.14185
    -1.03  0.31589  0.00994  -0.14333
    -0.04  0.42772  0.01005  -0.14429
     1.26  0.57503  0.01028  -0.14544
     2.52  0.71562  0.01055  -0.14652
     3.78  0.85568  0.01094  -0.14712
     5.04  0.98855  0.01127  -0.14627
     6.30  1.11655  0.01188  -0.14445
     7.56  1.22456  0.01259  -0.13904
     9.68  1.28869  0.02041  -0.11673
    11.81  1.20023  0.06643  -0.10160
    13.93  1.18329  0.11882  -0.10401
    16.05  1.16901  0.16610  -0.10855
    18.17  1.16384  0.21974  -0.12066
    20.29  1.14940  0.28145  -0.13548
    22.42  1.11073  0.32485  -0.15918
    24.54  1.08331  0.36299  -0.18115
    26.66  1.05589  0.40112  -0.20311
    28.78  1.02847  0.43926  -0.22508
    30.90  1.00677  0.48134  -0.24280
    33.03  0.99082  0.52731  -0.25642
    35.15  0.97551  0.57368  -0.26965
    37.27  0.96019  0.62005  -0.28288
    39.39  0.94488  0.66642  -0.29611
    41.51  0.92547  0.71465  -0.30771
    43.63  0.90439  0.76358  -0.31867
    45.76  0.88331  0.81251  -0.32963
    47.88  0.86224  0.86144  -0.34059
    50.00  0.84116  0.91038  -0.35155
    60.00  0.69016  1.12379  -0.39741
    70.00  0.48816  1.29261  -0.43713
    80.00  0.25000  1.39478  -0.46948
    90.00  0.00000  1.41600  -0.49241
   100.00  -0.17500  1.39478  -0.51233
   110.00  -0.34200  1.29261  -0.51625
   120.00  -0.48316  1.12379  -0.50706
   130.00  -0.58916  0.91038  -0.49104
   140.00  -0.65831  0.67963  -0.47766
   150.00  -0.70931  0.46099  -0.48513
   160.00  -0.79120  0.28172  -0.56215
   170.00  -0.39510  0.16438  -0.50000
   180.00  0.00000  0.12349  0.00000
EOT
