AeroDyn airfoil file.  Compatible with AeroDyn v13.0.
Interpolated thickness: 0.447

  1        Number of airfoil tables in this file
  9990     Reynolds number in millions.  For efficiency, make very large if only one table.
  0        Control setting
  10.7751  Stall angle (deg)
  -3.47422 Zero lift angle of attack (deg)
  4.83102  Cn slope for zero lift (dimensionless)
  1.20146  Cn at stall value for positive angle of attack
  -0.8     Cn at stall value for negative angle of attack
  -2.12    Angle of attack for minimum CD (deg)
  0.102969 Minimum CD value
  -180.00  0.00003  0.17602  -0.00003
  -170.00  0.28671  0.20593  0.29103
  -160.00  0.57413  0.29172  -0.10422
  -150.00  0.51592  0.42284  -0.04587
  -140.00  0.47881  0.58284  -0.00519
  -130.00  0.42860  0.75187  0.03417
  -120.00  0.35147  0.90846  0.07325
  -110.00  0.24888  1.03274  0.10948
  -100.00  0.12736  1.10863  0.13917
   -90.00  0.00003  1.12566  0.15867
   -80.00  -0.12731  1.10863  0.17308
   -70.00  -0.24882  1.03274  0.17570
   -60.00  -0.35142  0.90846  0.16893
   -50.00  -0.42855  0.75187  0.15714
   -40.00  -0.47875  0.58284  0.14754
   -30.00  -0.51586  0.42284  0.15328
   -20.00  -0.57262  0.29157  0.20917
   -10.00  -0.23427  0.17246  0.09245
    -4.17  -0.05236  0.10311  -0.09797
    -3.17  0.03059  0.10304  -0.09942
    -2.12  0.11645  0.10297  -0.10059
    -1.08  0.20304  0.10297  -0.10190
    -0.05  0.28890  0.10304  -0.10262
    -0.03  0.28910  0.10304  -0.10263
     1.17  0.39053  0.10320  -0.10356
     2.33  0.48606  0.10333  -0.10436
     3.50  0.58190  0.10358  -0.10490
     4.66  0.67472  0.10378  -0.10477
     5.83  0.76459  0.10405  -0.10411
     6.99  0.84979  0.10451  -0.10256
     8.16  0.91975  0.10501  -0.09826
    10.78  0.95155  0.11422  -0.07637
    13.39  0.83283  0.17863  -0.07054
    16.01  0.80421  0.21850  -0.07673
    18.62  0.82257  0.25821  -0.08635
    21.24  0.81800  0.30806  -0.10203
    23.85  0.79357  0.34242  -0.12194
    26.47  0.76915  0.37677  -0.14185
    29.08  0.74472  0.41113  -0.16176
    31.70  0.72737  0.45038  -0.17641
    34.31  0.71369  0.49216  -0.18834
    36.93  0.70001  0.53394  -0.20028
    39.54  0.68633  0.57572  -0.21221
    42.16  0.66840  0.61946  -0.22244
    44.77  0.64959  0.66360  -0.23232
    47.39  0.63078  0.70773  -0.24220
    50.00  0.61197  0.75187  -0.25208
    60.00  0.50209  0.90846  -0.28577
    70.00  0.35511  1.03274  -0.31509
    80.00  0.18194  1.10863  -0.33918
    90.00  0.00003  1.12566  -0.35649
   100.00  -0.12731  1.10863  -0.37083
   110.00  -0.24882  1.03274  -0.37352
   120.00  -0.35142  0.90846  -0.36668
   130.00  -0.42855  0.75187  -0.35497
   140.00  -0.47875  0.58284  -0.34529
   150.00  -0.51586  0.42284  -0.35104
   160.00  -0.57407  0.29172  -0.40750
   170.00  -0.28666  0.20593  -0.36384
   180.00  0.00003  0.17602  -0.00003
EOT
