AeroDyn airfoil file.  Compatible with AeroDyn v13.0.
Interpolated thickness: 0.646

  1        Number of airfoil tables in this file
  9990     Reynolds number in millions.  For efficiency, make very large if only one table.
  0        Control setting
  10.7211  Stall angle (deg)
  -3.29891 Zero lift angle of attack (deg)
  3.24967  Cn slope for zero lift (dimensionless)
  0.795178 Cn at stall value for positive angle of attack
  -0.8     Cn at stall value for negative angle of attack
  -2.12    Angle of attack for minimum CD (deg)
  0.191864 Minimum CD value
  -180.00  0.00005  0.23863  -0.00005
  -170.00  0.18357  0.25777  0.18626
  -160.00  0.36756  0.31269  -0.06675
  -150.00  0.33030  0.39663  -0.02940
  -140.00  0.30654  0.49905  -0.00336
  -130.00  0.27440  0.60726  0.02184
  -120.00  0.22503  0.70749  0.04685
  -110.00  0.15935  0.78705  0.07005
  -100.00  0.08157  0.83563  0.08905
   -90.00  0.00005  0.84653  0.10154
   -80.00  -0.08146  0.83563  0.11076
   -70.00  -0.15925  0.78705  0.11243
   -60.00  -0.22492  0.70749  0.10810
   -50.00  -0.27430  0.60726  0.10056
   -40.00  -0.30644  0.49905  0.09441
   -30.00  -0.33019  0.39663  0.09809
   -20.00  -0.36652  0.31260  0.13386
   -10.00  -0.14993  0.23635  0.05915
    -4.17  -0.03348  0.19196  -0.06275
    -3.17  0.01962  0.19191  -0.06368
    -2.12  0.07458  0.19186  -0.06443
    -1.08  0.13001  0.19186  -0.06526
    -0.05  0.18497  0.19191  -0.06573
    -0.02  0.18510  0.19191  -0.06573
     1.16  0.25003  0.19201  -0.06633
     2.31  0.31118  0.19209  -0.06684
     3.47  0.37254  0.19225  -0.06719
     4.63  0.43196  0.19239  -0.06710
     5.79  0.48948  0.19256  -0.06668
     6.94  0.54403  0.19285  -0.06569
     8.10  0.58881  0.19317  -0.06294
    10.72  0.60916  0.19907  -0.04892
    13.34  0.53317  0.24030  -0.04519
    15.96  0.51485  0.26582  -0.04915
    18.58  0.52660  0.29124  -0.05531
    21.20  0.52368  0.32315  -0.06535
    23.81  0.50804  0.34514  -0.07809
    26.43  0.49240  0.36714  -0.09084
    29.05  0.47676  0.38913  -0.10359
    31.67  0.46566  0.41426  -0.11297
    34.29  0.45690  0.44100  -0.12060
    36.91  0.44815  0.46775  -0.12824
    39.53  0.43939  0.49449  -0.13588
    42.14  0.42791  0.52249  -0.14243
    44.76  0.41586  0.55075  -0.14875
    47.38  0.40382  0.57900  -0.15508
    50.00  0.39178  0.60726  -0.16140
    60.00  0.32145  0.70749  -0.18297
    70.00  0.22736  0.78705  -0.20174
    80.00  0.11650  0.83563  -0.21716
    90.00  0.00005  0.84653  -0.22824
   100.00  -0.08146  0.83563  -0.23742
   110.00  -0.15925  0.78705  -0.23914
   120.00  -0.22492  0.70749  -0.23476
   130.00  -0.27430  0.60726  -0.22727
   140.00  -0.30644  0.49905  -0.22107
   150.00  -0.33019  0.39663  -0.22475
   160.00  -0.36745  0.31269  -0.26090
   170.00  -0.18347  0.25777  -0.23295
   180.00  0.00005  0.23863  -0.00005
EOT
