AeroDyn airfoil file.  Compatible with AeroDyn v13.0.
Interpolated thickness: 0.726

  1        Number of airfoil tables in this file
  9990     Reynolds number in millions.  For efficiency, make very large if only one table.
  0        Control setting
  10.6994  Stall angle (deg)
  -3.18366 Zero lift angle of attack (deg)
  2.60419  Cn slope for zero lift (dimensionless)
  0.631006 Cn at stall value for positive angle of attack
  -0.8     Cn at stall value for negative angle of attack
  -2.12    Angle of attack for minimum CD (deg)
  0.227601 Minimum CD value
  -180.00  0.00006  0.26380  -0.00006
  -170.00  0.14211  0.27862  0.14415
  -160.00  0.28452  0.32112  -0.05169
  -150.00  0.25568  0.38609  -0.02278
  -140.00  0.23729  0.46537  -0.00262
  -130.00  0.21241  0.54912  0.01688
  -120.00  0.17420  0.62670  0.03624
  -110.00  0.12336  0.68828  0.05420
  -100.00  0.06316  0.72588  0.06890
   -90.00  0.00006  0.73432  0.07857
   -80.00  -0.06303  0.72588  0.08571
   -70.00  -0.12324  0.68828  0.08700
   -60.00  -0.17407  0.62670  0.08365
   -50.00  -0.21229  0.54912  0.07781
   -40.00  -0.23716  0.46537  0.07305
   -30.00  -0.25555  0.38609  0.07590
   -20.00  -0.28367  0.32105  0.10359
   -10.00  -0.11603  0.26203  0.04576
    -4.17  -0.02589  0.22767  -0.04859
    -3.17  0.01521  0.22764  -0.04931
    -2.12  0.05775  0.22760  -0.04989
    -1.08  0.10065  0.22760  -0.05054
    -0.05  0.14319  0.22764  -0.05090
    -0.02  0.14329  0.22764  -0.05090
     1.15  0.19355  0.22772  -0.05136
     2.31  0.24088  0.22778  -0.05176
     3.46  0.28837  0.22790  -0.05203
     4.62  0.33436  0.22800  -0.05196
     5.77  0.37889  0.22814  -0.05164
     6.93  0.42111  0.22836  -0.05087
     8.08  0.45577  0.22861  -0.04874
    10.70  0.47152  0.23318  -0.03789
    13.32  0.41270  0.26509  -0.03500
    15.94  0.39852  0.28484  -0.03807
    18.56  0.40762  0.30452  -0.04284
    21.18  0.40535  0.32922  -0.05060
    23.80  0.39325  0.34624  -0.06047
    26.42  0.38115  0.36326  -0.07033
    29.04  0.36904  0.38029  -0.08020
    31.66  0.36045  0.39973  -0.08746
    34.28  0.35367  0.42044  -0.09337
    36.90  0.34689  0.44114  -0.09928
    39.52  0.34011  0.46184  -0.10520
    42.14  0.33123  0.48351  -0.11026
    44.76  0.32191  0.50538  -0.11516
    47.38  0.31259  0.52725  -0.12005
    50.00  0.30327  0.54912  -0.12495
    60.00  0.24883  0.62670  -0.14164
    70.00  0.17600  0.68828  -0.15617
    80.00  0.09020  0.72588  -0.16811
    90.00  0.00006  0.73432  -0.17669
   100.00  -0.06303  0.72588  -0.18379
   110.00  -0.12324  0.68828  -0.18512
   120.00  -0.17407  0.62670  -0.18173
   130.00  -0.21229  0.54912  -0.17593
   140.00  -0.23716  0.46537  -0.17113
   150.00  -0.25555  0.38609  -0.17398
   160.00  -0.28439  0.32112  -0.20196
   170.00  -0.14198  0.27862  -0.18033
   180.00  0.00006  0.26380  -0.00006
EOT
