AeroDyn airfoil file.  Compatible with AeroDyn v13.0.
Interpolated thickness: 0.362

  1        Number of airfoil tables in this file
  9990     Reynolds number in millions.  For efficiency, make very large if only one table.
  0        Control setting
  10.7981  Stall angle (deg)
  -3.52663 Zero lift angle of attack (deg)
  5.4961   Cn slope for zero lift (dimensionless)
  1.3741   Cn at stall value for positive angle of attack
  -0.8     Cn at stall value for negative angle of attack
  -2.12    Angle of attack for minimum CD (deg)
  0.0649987 Minimum CD value
  -180.00  0.00002  0.14928  -0.00002
  -170.00  0.33077  0.18378  0.33577
  -160.00  0.66236  0.28276  -0.12023
  -150.00  0.59520  0.43403  -0.05290
  -140.00  0.55239  0.61863  -0.00598
  -130.00  0.49447  0.81364  0.03944
  -120.00  0.40548  0.99430  0.08452
  -110.00  0.28712  1.13768  0.12632
  -100.00  0.14692  1.22524  0.16058
   -90.00  0.00002  1.24488  0.18307
   -80.00  -0.14689  1.22524  0.19969
   -70.00  -0.28708  1.13768  0.20272
   -60.00  -0.40545  0.99430  0.19491
   -50.00  -0.49443  0.81364  0.18131
   -40.00  -0.55236  0.61863  0.17023
   -30.00  -0.59517  0.43403  0.17686
   -20.00  -0.66065  0.28259  0.24133
   -10.00  -0.27029  0.14517  0.10668
    -4.17  -0.06043  0.06517  -0.11301
    -3.17  0.03527  0.06508  -0.11469
    -2.12  0.13433  0.06500  -0.11603
    -1.08  0.23423  0.06500  -0.11754
    -0.05  0.33329  0.06508  -0.11838
    -0.04  0.33352  0.06508  -0.11838
     1.17  0.45054  0.06527  -0.11946
     2.34  0.56075  0.06541  -0.12038
     3.51  0.67132  0.06570  -0.12101
     4.68  0.77842  0.06594  -0.12086
     5.85  0.88210  0.06625  -0.12010
     7.02  0.98040  0.06677  -0.11830
     8.18  1.06111  0.06735  -0.11335
    10.80  1.09779  0.07798  -0.08809
    13.41  0.96083  0.15229  -0.08136
    16.03  0.92781  0.19829  -0.08851
    18.64  0.94899  0.24410  -0.09961
    21.25  0.94372  0.30161  -0.11769
    23.87  0.91554  0.34125  -0.14066
    26.48  0.88735  0.38089  -0.16364
    29.09  0.85917  0.42052  -0.18661
    31.71  0.83916  0.46581  -0.20351
    34.32  0.82338  0.51401  -0.21728
    36.93  0.80759  0.56221  -0.23104
    39.55  0.79181  0.61042  -0.24481
    42.16  0.77112  0.66088  -0.25661
    44.77  0.74942  0.71180  -0.26801
    47.39  0.72771  0.76272  -0.27941
    50.00  0.70601  0.81364  -0.29081
    60.00  0.57925  0.99430  -0.32968
    70.00  0.40968  1.13768  -0.36351
    80.00  0.20988  1.22524  -0.39129
    90.00  0.00002  1.24488  -0.41127
   100.00  -0.14689  1.22524  -0.42781
   110.00  -0.28708  1.13768  -0.43092
   120.00  -0.40545  0.99430  -0.42303
   130.00  -0.49443  0.81364  -0.40951
   140.00  -0.55236  0.61863  -0.39835
   150.00  -0.59517  0.43403  -0.40498
   160.00  -0.66233  0.28276  -0.47012
   170.00  -0.33074  0.18378  -0.41975
   180.00  0.00002  0.14928  -0.00002
EOT
