AeroDyn airfoil file.  Compatible with AeroDyn v13.0.
Interpolated thickness: 0.877

  1        Number of airfoil tables in this file
  9990     Reynolds number in millions.  For efficiency, make very large if only one table.
  0        Control setting
  10.6584  Stall angle (deg)
  -2.7868  Zero lift angle of attack (deg)
  1.35184  Cn slope for zero lift (dimensionless)
  0.317226 Cn at stall value for positive angle of attack
  -0.8     Cn at stall value for negative angle of attack
  -2.12    Angle of attack for minimum CD (deg)
  0.295055 Minimum CD value
  -180.00  0.00008  0.31130  -0.00008
  -170.00  0.06385  0.31796  0.06465
  -160.00  0.12778  0.33704  -0.02326
  -150.00  0.11483  0.36620  -0.01028
  -140.00  0.10658  0.40179  -0.00123
  -130.00  0.09541  0.43939  0.00752
  -120.00  0.07825  0.47421  0.01621
  -110.00  0.05543  0.50186  0.02427
  -100.00  0.02841  0.51874  0.03088
   -90.00  0.00008  0.52252  0.03521
   -80.00  -0.02824  0.51874  0.03842
   -70.00  -0.05527  0.50186  0.03900
   -60.00  -0.07809  0.47421  0.03750
   -50.00  -0.09524  0.43939  0.03487
   -40.00  -0.10641  0.40179  0.03274
   -30.00  -0.11466  0.36620  0.03402
   -20.00  -0.12729  0.33700  0.04645
   -10.00  -0.05203  0.31051  0.02049
    -4.17  -0.01157  0.29509  -0.02187
    -3.17  0.00688  0.29507  -0.02219
    -2.12  0.02598  0.29505  -0.02245
    -1.08  0.04524  0.29505  -0.02274
    -0.05  0.06434  0.29507  -0.02290
    -0.01  0.06438  0.29507  -0.02290
     1.15  0.08694  0.29511  -0.02311
     2.30  0.10819  0.29513  -0.02329
     3.44  0.12951  0.29519  -0.02341
     4.59  0.15015  0.29524  -0.02338
     5.74  0.17014  0.29530  -0.02324
     6.89  0.18909  0.29540  -0.02289
     8.04  0.20465  0.29551  -0.02193
    10.66  0.21172  0.29756  -0.01706
    13.28  0.18532  0.31188  -0.01577
    15.90  0.17895  0.32075  -0.01714
    18.53  0.18304  0.32958  -0.01928
    21.15  0.18202  0.34067  -0.02277
    23.77  0.17659  0.34831  -0.02720
    26.40  0.17115  0.35595  -0.03163
    29.02  0.16572  0.36360  -0.03606
    31.64  0.16186  0.37233  -0.03932
    34.26  0.15882  0.38162  -0.04197
    36.89  0.15578  0.39091  -0.04462
    39.51  0.15273  0.40021  -0.04728
    42.13  0.14874  0.40993  -0.04955
    44.75  0.14456  0.41975  -0.05175
    47.38  0.14038  0.42957  -0.05395
    50.00  0.13619  0.43939  -0.05615
    60.00  0.11175  0.47421  -0.06364
    70.00  0.07906  0.50186  -0.07016
    80.00  0.04054  0.51874  -0.07552
    90.00  0.00008  0.52252  -0.07937
   100.00  -0.02824  0.51874  -0.08256
   110.00  -0.05527  0.50186  -0.08316
   120.00  -0.07809  0.47421  -0.08164
   130.00  -0.09524  0.43939  -0.07903
   140.00  -0.10641  0.40179  -0.07688
   150.00  -0.11466  0.36620  -0.07816
   160.00  -0.12761  0.33704  -0.09072
   170.00  -0.06368  0.31796  -0.08100
   180.00  0.00008  0.31130  -0.00008
EOT
