AeroDyn airfoil file.  Compatible with AeroDyn v13.0.
Interpolated thickness: 0.223

  1        Number of airfoil tables in this file
  9990     Reynolds number in millions.  For efficiency, make very large if only one table.
  0        Control setting
  9.34461  Stall angle (deg)
  -3.99761 Zero lift angle of attack (deg)
  6.42725  Cn slope for zero lift (dimensionless)
  1.49669  Cn at stall value for positive angle of attack
  -0.8     Cn at stall value for negative angle of attack
  -2.02    Angle of attack for minimum CD (deg)
  0.00960143 Minimum CD value
  -180.00  0.00000  0.13035  0.00000
  -170.00  0.39570  0.17114  0.40000
  -160.00  0.79240  0.28816  -0.14184
  -150.00  0.70949  0.46693  -0.06273
  -140.00  0.65849  0.68489  -0.00705
  -130.00  0.58924  0.91478  0.04683
  -120.00  0.48324  1.12721  0.10007
  -110.00  0.34200  1.29495  0.14904
  -100.00  0.17500  1.39598  0.18875
   -90.00  0.00000  1.41600  0.21421
   -80.00  -0.17500  1.39598  0.23433
   -70.00  -0.34200  1.29495  0.23829
   -60.00  -0.48324  1.12721  0.22929
   -50.00  -0.58924  0.91478  0.21323
   -40.00  -0.65849  0.68489  0.19989
   -30.00  -0.70949  0.46693  0.20713
   -20.00  -0.79064  0.28794  0.28315
   -10.00  -0.30791  0.10568  0.10879
    -6.04  -0.13296  0.03360  -0.07376
    -5.04  -0.07038  0.02052  -0.11030
    -4.09  -0.00948  0.00970  -0.14057
    -3.02  0.11062  0.00964  -0.14243
    -2.02  0.22161  0.00960  -0.14375
    -1.03  0.33288  0.00963  -0.14511
    -0.04  0.44432  0.00975  -0.14608
     1.20  0.58404  0.00998  -0.14706
     2.40  0.71759  0.01025  -0.14804
     3.60  0.85053  0.01063  -0.14866
     4.80  0.97700  0.01096  -0.14784
     6.00  1.09903  0.01154  -0.14615
     7.20  1.20304  0.01221  -0.14124
     9.34  1.27916  0.01960  -0.12023
    11.48  1.21580  0.06140  -0.10544
    13.62  1.21501  0.10915  -0.10645
    15.76  1.20701  0.15465  -0.10944
    17.90  1.18206  0.21750  -0.12177
    20.04  1.15950  0.28065  -0.13590
    22.18  1.11439  0.32712  -0.16059
    24.32  1.08667  0.36546  -0.18259
    26.46  1.05894  0.40379  -0.20460
    28.60  1.03122  0.44212  -0.22660
    30.74  1.00863  0.48400  -0.24480
    32.88  0.99218  0.52999  -0.25870
    35.02  0.97672  0.57660  -0.27199
    37.16  0.96126  0.62320  -0.28527
    39.30  0.94580  0.66981  -0.29856
    41.44  0.92642  0.71817  -0.31031
    43.58  0.90513  0.76732  -0.32132
    45.72  0.88383  0.81647  -0.33234
    47.86  0.86254  0.86563  -0.34335
    50.00  0.84124  0.91478  -0.35437
    60.00  0.69024  1.12721  -0.39999
    70.00  0.48824  1.29495  -0.43939
    80.00  0.25000  1.39598  -0.47132
    90.00  0.00000  1.41600  -0.49379
   100.00  -0.17500  1.39598  -0.51383
   110.00  -0.34200  1.29495  -0.51787
   120.00  -0.48324  1.12721  -0.50878
   130.00  -0.58924  0.91478  -0.49280
   140.00  -0.65849  0.68489  -0.47938
   150.00  -0.70949  0.46693  -0.48663
   160.00  -0.79240  0.28816  -0.56333
   170.00  -0.39570  0.17114  -0.50000
   180.00  0.00000  0.13035  0.00000
EOT
