AeroDyn airfoil file.  Compatible with AeroDyn v13.0.
Interpolated thickness: 0.703

  1        Number of airfoil tables in this file
  9990     Reynolds number in millions.  For efficiency, make very large if only one table.
  0        Control setting
  10.7056  Stall angle (deg)
  -3.22141 Zero lift angle of attack (deg)
  2.79034  Cn slope for zero lift (dimensionless)
  0.678255 Cn at stall value for positive angle of attack
  -0.8     Cn at stall value for negative angle of attack
  -2.12    Angle of attack for minimum CD (deg)
  0.217327 Minimum CD value
  -180.00  0.00006  0.25656  -0.00006
  -170.00  0.15403  0.27262  0.15625
  -160.00  0.30839  0.31870  -0.05602
  -150.00  0.27713  0.38912  -0.02468
  -140.00  0.25720  0.47505  -0.00284
  -130.00  0.23024  0.56583  0.01831
  -120.00  0.18881  0.64993  0.03929
  -110.00  0.13371  0.71668  0.05875
  -100.00  0.06845  0.75744  0.07470
   -90.00  0.00006  0.76658  0.08517
   -80.00  -0.06833  0.75744  0.09291
   -70.00  -0.13359  0.71668  0.09431
   -60.00  -0.18869  0.64993  0.09068
   -50.00  -0.23011  0.56583  0.08435
   -40.00  -0.25708  0.47505  0.07919
   -30.00  -0.27701  0.38912  0.08228
   -20.00  -0.30749  0.31862  0.11229
   -10.00  -0.12577  0.25465  0.04961
    -4.17  -0.02808  0.21741  -0.05266
    -3.17  0.01647  0.21737  -0.05344
    -2.12  0.06259  0.21733  -0.05407
    -1.08  0.10909  0.21733  -0.05477
    -0.05  0.15520  0.21737  -0.05516
    -0.02  0.15531  0.21737  -0.05516
     1.16  0.20979  0.21745  -0.05567
     2.31  0.26109  0.21752  -0.05609
     3.47  0.31257  0.21765  -0.05639
     4.62  0.36242  0.21776  -0.05631
     5.78  0.41069  0.21791  -0.05596
     6.93  0.45645  0.21815  -0.05513
     8.09  0.49402  0.21842  -0.05282
    10.71  0.51110  0.22337  -0.04106
    13.33  0.44733  0.25796  -0.03793
    15.94  0.43197  0.27937  -0.04125
    18.56  0.44182  0.30070  -0.04642
    21.18  0.43937  0.32748  -0.05484
    23.80  0.42625  0.34593  -0.06554
    26.42  0.41313  0.36438  -0.07623
    29.04  0.40001  0.38283  -0.08692
    31.66  0.39070  0.40391  -0.09479
    34.28  0.38335  0.42635  -0.10120
    36.90  0.37600  0.44879  -0.10761
    39.52  0.36866  0.47123  -0.11402
    42.14  0.35902  0.49472  -0.11951
    44.76  0.34892  0.51842  -0.12482
    47.38  0.33882  0.54213  -0.13012
    50.00  0.32871  0.56583  -0.13543
    60.00  0.26971  0.64993  -0.15352
    70.00  0.19077  0.71668  -0.16927
    80.00  0.09776  0.75744  -0.18221
    90.00  0.00006  0.76658  -0.19151
   100.00  -0.06833  0.75744  -0.19921
   110.00  -0.13359  0.71668  -0.20065
   120.00  -0.18869  0.64993  -0.19698
   130.00  -0.23011  0.56583  -0.19069
   140.00  -0.25708  0.47505  -0.18549
   150.00  -0.27701  0.38912  -0.18858
   160.00  -0.30827  0.31870  -0.21890
   170.00  -0.15391  0.27262  -0.19546
   180.00  0.00006  0.25656  -0.00006
EOT
