AeroDyn airfoil file.  Compatible with AeroDyn v13.0.
Interpolated thickness: 0.852

  1        Number of airfoil tables in this file
  9990     Reynolds number in millions.  For efficiency, make very large if only one table.
  0        Control setting
  10.6652  Stall angle (deg)
  -2.91551 Zero lift angle of attack (deg)
  1.55437  Cn slope for zero lift (dimensionless)
  0.368428 Cn at stall value for positive angle of attack
  -0.8     Cn at stall value for negative angle of attack
  -2.12    Angle of attack for minimum CD (deg)
  0.283887 Minimum CD value
  -180.00  0.00008  0.30344  -0.00008
  -170.00  0.07681  0.31144  0.07781
  -160.00  0.15373  0.33440  -0.02797
  -150.00  0.13815  0.36949  -0.01235
  -140.00  0.12822  0.41232  -0.00146
  -130.00  0.11478  0.45755  0.00907
  -120.00  0.09414  0.49946  0.01953
  -110.00  0.06668  0.53272  0.02923
  -100.00  0.03416  0.55303  0.03717
   -90.00  0.00008  0.55759  0.04239
   -80.00  -0.03400  0.55303  0.04625
   -70.00  -0.06652  0.53272  0.04695
   -60.00  -0.09398  0.49946  0.04514
   -50.00  -0.11462  0.45755  0.04198
   -40.00  -0.12806  0.41232  0.03941
   -30.00  -0.13799  0.36949  0.04095
   -20.00  -0.15318  0.33436  0.05591
   -10.00  -0.06262  0.30248  0.02467
    -4.17  -0.01394  0.28393  -0.02629
    -3.17  0.00826  0.28391  -0.02668
    -2.12  0.03124  0.28389  -0.02699
    -1.08  0.05441  0.28389  -0.02734
    -0.05  0.07739  0.28391  -0.02754
    -0.01  0.07744  0.28391  -0.02754
     1.15  0.10459  0.28395  -0.02779
     2.30  0.13016  0.28398  -0.02800
     3.45  0.15581  0.28405  -0.02815
     4.60  0.18065  0.28410  -0.02811
     5.74  0.20470  0.28418  -0.02794
     6.89  0.22750  0.28430  -0.02752
     8.04  0.24623  0.28443  -0.02637
    10.67  0.25474  0.28690  -0.02051
    13.29  0.22296  0.30414  -0.01895
    15.91  0.21531  0.31481  -0.02061
    18.53  0.22022  0.32543  -0.02318
    21.15  0.21900  0.33878  -0.02738
    23.78  0.21246  0.34797  -0.03271
    26.40  0.20592  0.35716  -0.03804
    29.02  0.19938  0.36636  -0.04337
    31.64  0.19474  0.37686  -0.04729
    34.27  0.19108  0.38805  -0.05048
    36.89  0.18742  0.39923  -0.05367
    39.51  0.18376  0.41041  -0.05687
    42.13  0.17896  0.42212  -0.05960
    44.76  0.17392  0.43393  -0.06225
    47.38  0.16889  0.44574  -0.06489
    50.00  0.16385  0.45755  -0.06754
    60.00  0.13445  0.49946  -0.07655
    70.00  0.09511  0.53272  -0.08440
    80.00  0.04876  0.55303  -0.09085
    90.00  0.00008  0.55759  -0.09548
   100.00  -0.03400  0.55303  -0.09932
   110.00  -0.06652  0.53272  -0.10004
   120.00  -0.09398  0.49946  -0.09821
   130.00  -0.11462  0.45755  -0.09507
   140.00  -0.12806  0.41232  -0.09248
   150.00  -0.13799  0.36949  -0.09402
   160.00  -0.15357  0.33440  -0.10913
   170.00  -0.07665  0.31144  -0.09745
   180.00  0.00008  0.30344  -0.00008
EOT
