AeroDyn airfoil file.  Compatible with AeroDyn v13.0.
Interpolated thickness: 0.458

  1        Number of airfoil tables in this file
  9990     Reynolds number in millions.  For efficiency, make very large if only one table.
  0        Control setting
  10.7721  Stall angle (deg)
  -3.46677 Zero lift angle of attack (deg)
  4.74451  Cn slope for zero lift (dimensionless)
  1.17908  Cn at stall value for positive angle of attack
  -0.8     Cn at stall value for negative angle of attack
  -2.12    Angle of attack for minimum CD (deg)
  0.107883 Minimum CD value
  -180.00  0.00003  0.17948  -0.00003
  -170.00  0.28101  0.20879  0.28523
  -160.00  0.56271  0.29288  -0.10215
  -150.00  0.50566  0.42139  -0.04496
  -140.00  0.46929  0.57821  -0.00509
  -130.00  0.42008  0.74388  0.03349
  -120.00  0.34448  0.89735  0.07179
  -110.00  0.24393  1.01916  0.10730
  -100.00  0.12483  1.09354  0.13640
   -90.00  0.00003  1.11023  0.15551
   -80.00  -0.12477  1.09354  0.16963
   -70.00  -0.24387  1.01916  0.17220
   -60.00  -0.34443  0.89735  0.16557
   -50.00  -0.42002  0.74388  0.15401
   -40.00  -0.46923  0.57821  0.14460
   -30.00  -0.50560  0.42139  0.15023
   -20.00  -0.56123  0.29273  0.20500
   -10.00  -0.22961  0.17599  0.09061
    -4.17  -0.05132  0.10803  -0.09602
    -3.17  0.02998  0.10795  -0.09745
    -2.12  0.11413  0.10788  -0.09859
    -1.08  0.19900  0.10788  -0.09987
    -0.05  0.28315  0.10795  -0.10058
    -0.03  0.28335  0.10795  -0.10059
     1.17  0.38276  0.10811  -0.10150
     2.33  0.47639  0.10824  -0.10228
     3.50  0.57033  0.10848  -0.10282
     4.66  0.66131  0.10868  -0.10269
     5.83  0.74938  0.10894  -0.10205
     6.99  0.83289  0.10939  -0.10052
     8.16  0.90146  0.10988  -0.09630
    10.77  0.93262  0.11891  -0.07485
    13.39  0.81626  0.18204  -0.06914
    16.00  0.78822  0.22111  -0.07520
    18.62  0.80621  0.26004  -0.08464
    21.23  0.80173  0.30889  -0.10000
    23.85  0.77779  0.34257  -0.11951
    26.46  0.75385  0.37624  -0.13903
    29.08  0.72991  0.40991  -0.15854
    31.69  0.71291  0.44838  -0.17290
    34.31  0.69950  0.48933  -0.18460
    36.92  0.68609  0.53028  -0.19629
    39.54  0.67268  0.57123  -0.20799
    42.15  0.65510  0.61410  -0.21802
    44.77  0.63667  0.65736  -0.22770
    47.38  0.61823  0.70062  -0.23738
    50.00  0.59979  0.74388  -0.24707
    60.00  0.49211  0.89735  -0.28009
    70.00  0.34805  1.01916  -0.30883
    80.00  0.17832  1.09354  -0.33243
    90.00  0.00003  1.11023  -0.34940
   100.00  -0.12477  1.09354  -0.36345
   110.00  -0.24387  1.01916  -0.36609
   120.00  -0.34443  0.89735  -0.35939
   130.00  -0.42002  0.74388  -0.34791
   140.00  -0.46923  0.57821  -0.33842
   150.00  -0.50560  0.42139  -0.34406
   160.00  -0.56265  0.29288  -0.39940
   170.00  -0.28096  0.20879  -0.35661
   180.00  0.00003  0.17948  -0.00003
EOT
