AeroDyn airfoil file.  Compatible with AeroDyn v13.0.
Interpolated thickness: 0.175

  1        Number of airfoil tables in this file
  9990     Reynolds number in millions.  For efficiency, make very large if only one table.
  0        Control setting
  13.4709  Stall angle (deg)
  -5.41317 Zero lift angle of attack (deg)
  6.11475  Cn slope for zero lift (dimensionless)
  2.01535  Cn at stall value for positive angle of attack
  -0.8     Cn at stall value for negative angle of attack
  -4.09    Angle of attack for minimum CD (deg)
  0.00689229 Minimum CD value
  -180.00  0.00000  0.18528  0.00000
  -170.00  0.40050  0.22517  0.40000
  -160.00  0.80200  0.33973  -0.13800
  -150.00  0.71086  0.51445  -0.06198
  -140.00  0.65986  0.72692  -0.00691
  -130.00  0.58993  0.95003  0.04635
  -120.00  0.48393  1.15464  0.09829
  -110.00  0.34200  1.31374  0.14493
  -100.00  0.17500  1.40551  0.18155
   -90.00  0.00000  1.41600  0.20324
   -80.00  -0.17500  1.40551  0.22425
   -70.00  -0.34200  1.31374  0.22924
   -60.00  -0.48393  1.15464  0.22106
   -50.00  -0.58993  0.95003  0.20541
   -40.00  -0.65986  0.72692  0.19166
   -30.00  -0.71086  0.51445  0.19705
   -20.00  -0.80093  0.33944  0.27088
   -10.00  -0.26814  0.10479  0.05709
    -6.04  -0.07866  0.01195  -0.13900
    -5.04  0.03955  0.00809  -0.15196
    -4.09  0.14129  0.00689  -0.15699
    -3.02  0.25678  0.00698  -0.15825
    -2.02  0.36325  0.00706  -0.15892
    -1.03  0.46884  0.00716  -0.15941
    -0.00  0.57716  0.00735  -0.16041
     0.72  0.65615  0.00755  -0.16002
     1.45  0.73337  0.00782  -0.16023
     2.17  0.80933  0.00816  -0.16101
     2.89  0.88459  0.00849  -0.16040
     3.62  0.95890  0.00881  -0.15976
     4.34  1.03093  0.00912  -0.15886
     6.62  1.20297  0.01317  -0.14830
     8.90  1.34035  0.02122  -0.13615
    11.19  1.46875  0.03177  -0.12594
    13.47  1.51100  0.06302  -0.11654
    15.75  1.32784  0.19956  -0.13062
    18.04  1.24032  0.27424  -0.13928
    20.32  1.14368  0.34528  -0.17186
    22.60  1.11351  0.38520  -0.19418
    24.89  1.08334  0.42512  -0.21651
    27.17  1.05317  0.46504  -0.23883
    29.45  1.02348  0.50529  -0.26080
    31.74  1.00307  0.55141  -0.27691
    34.02  0.98642  0.59991  -0.29068
    36.30  0.96977  0.64841  -0.30444
    38.58  0.95311  0.69690  -0.31820
    40.87  0.93405  0.74634  -0.33108
    43.15  0.91102  0.79726  -0.34252
    45.43  0.88799  0.84818  -0.35397
    47.72  0.86496  0.89911  -0.36541
    50.00  0.84193  0.95003  -0.37686
    60.00  0.69093  1.15464  -0.42056
    70.00  0.48893  1.31374  -0.45742
    80.00  0.25000  1.40551  -0.48606
    90.00  0.00000  1.41600  -0.50476
   100.00  -0.17500  1.40551  -0.52576
   110.00  -0.34200  1.31374  -0.53076
   120.00  -0.48393  1.15464  -0.52256
   130.00  -0.58993  0.95003  -0.50693
   140.00  -0.65986  0.72692  -0.49316
   150.00  -0.71086  0.51445  -0.49856
   160.00  -0.80200  0.33973  -0.57272
   170.00  -0.40050  0.22517  -0.50000
   180.00  0.00000  0.18528  0.00000
EOT
