AeroDyn airfoil file.  Compatible with AeroDyn v13.0.
Interpolated thickness: 0.472

  1        Number of airfoil tables in this file
  9990     Reynolds number in millions.  For efficiency, make very large if only one table.
  0        Control setting
  10.7683  Stall angle (deg)
  -3.45703 Zero lift angle of attack (deg)
  4.63424  Cn slope for zero lift (dimensionless)
  1.15058  Cn at stall value for positive angle of attack
  -0.8     Cn at stall value for negative angle of attack
  -2.12    Angle of attack for minimum CD (deg)
  0.114137 Minimum CD value
  -180.00  0.00003  0.18389  -0.00003
  -170.00  0.27376  0.21244  0.27786
  -160.00  0.54818  0.29435  -0.09952
  -150.00  0.49260  0.41954  -0.04380
  -140.00  0.45717  0.57232  -0.00496
  -130.00  0.40923  0.73370  0.03262
  -120.00  0.33559  0.88321  0.06993
  -110.00  0.23763  1.00187  0.10453
  -100.00  0.12161  1.07433  0.13287
   -90.00  0.00003  1.09059  0.15149
   -80.00  -0.12155  1.07433  0.16525
   -70.00  -0.23757  1.00187  0.16775
   -60.00  -0.33553  0.88321  0.16129
   -50.00  -0.40917  0.73370  0.15003
   -40.00  -0.45711  0.57232  0.14086
   -30.00  -0.49254  0.41954  0.14635
   -20.00  -0.54673  0.29421  0.19971
   -10.00  -0.22367  0.18048  0.08827
    -4.17  -0.04999  0.11428  -0.09354
    -3.17  0.02921  0.11421  -0.09493
    -2.12  0.11119  0.11414  -0.09604
    -1.08  0.19386  0.11414  -0.09729
    -0.05  0.27584  0.11421  -0.09799
    -0.03  0.27603  0.11421  -0.09799
     1.16  0.37288  0.11436  -0.09888
     2.33  0.46409  0.11448  -0.09964
     3.49  0.55560  0.11472  -0.10017
     4.66  0.64423  0.11491  -0.10004
     5.82  0.73003  0.11517  -0.09941
     6.99  0.81138  0.11561  -0.09792
     8.15  0.87818  0.11608  -0.09382
    10.77  0.90854  0.12488  -0.07292
    13.38  0.79518  0.18637  -0.06735
    16.00  0.76786  0.22444  -0.07326
    18.61  0.78538  0.26236  -0.08245
    21.23  0.78103  0.30996  -0.09742
    23.85  0.75770  0.34276  -0.11643
    26.46  0.73438  0.37556  -0.13544
    29.08  0.71105  0.40836  -0.15445
    31.69  0.69449  0.44584  -0.16844
    34.31  0.68143  0.48573  -0.17983
    36.92  0.66837  0.52562  -0.19123
    39.54  0.65531  0.56552  -0.20262
    42.15  0.63818  0.60728  -0.21239
    44.77  0.62022  0.64942  -0.22182
    47.38  0.60226  0.69156  -0.23125
    50.00  0.58430  0.73370  -0.24069
    60.00  0.47940  0.88321  -0.27285
    70.00  0.33906  1.00187  -0.30085
    80.00  0.17371  1.07433  -0.32385
    90.00  0.00003  1.09059  -0.34038
   100.00  -0.12155  1.07433  -0.35407
   110.00  -0.23757  1.00187  -0.35664
   120.00  -0.33553  0.88321  -0.35011
   130.00  -0.40917  0.73370  -0.33892
   140.00  -0.45711  0.57232  -0.32968
   150.00  -0.49254  0.41954  -0.33517
   160.00  -0.54812  0.29435  -0.38908
   170.00  -0.27370  0.21244  -0.34740
   180.00  0.00003  0.18389  -0.00003
EOT
