AeroDyn airfoil file.  Compatible with AeroDyn v13.0.
Interpolated thickness: 0.636

  1        Number of airfoil tables in this file
  9990     Reynolds number in millions.  For efficiency, make very large if only one table.
  0        Control setting
  10.7238  Stall angle (deg)
  -3.31067 Zero lift angle of attack (deg)
  3.32996  Cn slope for zero lift (dimensionless)
  0.815665 Cn at stall value for positive angle of attack
  -0.8     Cn at stall value for negative angle of attack
  -2.12    Angle of attack for minimum CD (deg)
  0.187397 Minimum CD value
  -180.00  0.00005  0.23548  -0.00005
  -170.00  0.18876  0.25517  0.19153
  -160.00  0.37794  0.31164  -0.06864
  -150.00  0.33963  0.39794  -0.03023
  -140.00  0.31520  0.50326  -0.00345
  -130.00  0.28215  0.61452  0.02246
  -120.00  0.23138  0.71759  0.04818
  -110.00  0.16385  0.79940  0.07203
  -100.00  0.08387  0.84935  0.09157
   -90.00  0.00005  0.86056  0.10441
   -80.00  -0.08376  0.84935  0.11389
   -70.00  -0.16375  0.79940  0.11561
   -60.00  -0.23128  0.71759  0.11116
   -50.00  -0.28205  0.61452  0.10340
   -40.00  -0.31510  0.50326  0.09708
   -30.00  -0.33952  0.39794  0.10086
   -20.00  -0.37688  0.31154  0.13765
   -10.00  -0.15417  0.23314  0.06082
    -4.17  -0.03443  0.18749  -0.06452
    -3.17  0.02017  0.18745  -0.06548
    -2.12  0.07668  0.18740  -0.06624
    -1.08  0.13368  0.18740  -0.06710
    -0.05  0.19019  0.18745  -0.06758
    -0.02  0.19033  0.18745  -0.06758
     1.16  0.25709  0.18755  -0.06820
     2.32  0.31997  0.18763  -0.06873
     3.47  0.38306  0.18780  -0.06909
     4.63  0.44416  0.18793  -0.06899
     5.79  0.50331  0.18811  -0.06857
     6.95  0.55939  0.18841  -0.06754
     8.11  0.60544  0.18874  -0.06471
    10.72  0.62637  0.19481  -0.05030
    13.34  0.54823  0.23720  -0.04646
    15.96  0.52939  0.26344  -0.05054
    18.58  0.54147  0.28958  -0.05687
    21.20  0.53847  0.32239  -0.06719
    23.82  0.52239  0.34501  -0.08030
    26.43  0.50631  0.36762  -0.09340
    29.05  0.49023  0.39024  -0.10651
    31.67  0.47881  0.41607  -0.11615
    34.29  0.46981  0.44357  -0.12401
    36.91  0.46080  0.47107  -0.13186
    39.53  0.45180  0.49858  -0.13972
    42.14  0.43999  0.52736  -0.14645
    44.76  0.42761  0.55642  -0.15295
    47.38  0.41523  0.58547  -0.15946
    50.00  0.40285  0.61452  -0.16596
    60.00  0.33053  0.71759  -0.18813
    70.00  0.23378  0.79940  -0.20744
    80.00  0.11979  0.84935  -0.22329
    90.00  0.00005  0.86056  -0.23469
   100.00  -0.08376  0.84935  -0.24412
   110.00  -0.16375  0.79940  -0.24590
   120.00  -0.23128  0.71759  -0.24139
   130.00  -0.28205  0.61452  -0.23368
   140.00  -0.31510  0.50326  -0.22731
   150.00  -0.33952  0.39794  -0.23110
   160.00  -0.37784  0.31164  -0.26826
   170.00  -0.18865  0.25517  -0.23953
   180.00  0.00005  0.23548  -0.00005
EOT
