AeroDyn airfoil file.  Compatible with AeroDyn v13.0.
Interpolated thickness: 0.912

  1        Number of airfoil tables in this file
  9990     Reynolds number in millions.  For efficiency, make very large if only one table.
  0        Control setting
  10.6489  Stall angle (deg)
  -2.52616 Zero lift angle of attack (deg)
  1.06764  Cn slope for zero lift (dimensionless)
  0.245501 Cn at stall value for positive angle of attack
  -0.8     Cn at stall value for negative angle of attack
  -2.12    Angle of attack for minimum CD (deg)
  0.310689 Minimum CD value
  -180.00  0.00009  0.32231  -0.00009
  -170.00  0.04571  0.32707  0.04623
  -160.00  0.09145  0.34073  -0.01667
  -150.00  0.08218  0.36159  -0.00738
  -140.00  0.07628  0.38705  -0.00091
  -130.00  0.06829  0.41395  0.00535
  -120.00  0.05601  0.43887  0.01157
  -110.00  0.03969  0.45865  0.01734
  -100.00  0.02035  0.47072  0.02206
   -90.00  0.00009  0.47343  0.02517
   -80.00  -0.02017  0.47072  0.02746
   -70.00  -0.03951  0.45865  0.02787
   -60.00  -0.05584  0.43887  0.02680
   -50.00  -0.06811  0.41395  0.02492
   -40.00  -0.07610  0.38705  0.02339
   -30.00  -0.08201  0.36159  0.02431
   -20.00  -0.09104  0.34070  0.03320
   -10.00  -0.03720  0.32175  0.01463
    -4.17  -0.00825  0.31071  -0.01567
    -3.17  0.00495  0.31070  -0.01591
    -2.12  0.01861  0.31069  -0.01609
    -1.08  0.03239  0.31069  -0.01630
    -0.05  0.04606  0.31070  -0.01641
    -0.01  0.04609  0.31070  -0.01642
     1.15  0.06223  0.31073  -0.01656
     2.29  0.07743  0.31075  -0.01669
     3.44  0.09268  0.31079  -0.01678
     4.59  0.10745  0.31082  -0.01676
     5.73  0.12175  0.31086  -0.01665
     6.88  0.13531  0.31093  -0.01640
     8.03  0.14645  0.31101  -0.01572
    10.65  0.15151  0.31248  -0.01224
    13.27  0.13261  0.32273  -0.01131
    15.90  0.12806  0.32907  -0.01229
    18.52  0.13098  0.33539  -0.01383
    21.14  0.13025  0.34333  -0.01632
    23.77  0.12637  0.34879  -0.01949
    26.39  0.12248  0.35426  -0.02266
    29.01  0.11859  0.35973  -0.02583
    31.64  0.11583  0.36597  -0.02816
    34.26  0.11366  0.37262  -0.03006
    36.88  0.11148  0.37927  -0.03195
    39.51  0.10930  0.38592  -0.03385
    42.13  0.10645  0.39288  -0.03548
    44.75  0.10345  0.39990  -0.03705
    47.38  0.10046  0.40693  -0.03863
    50.00  0.09747  0.41395  -0.04020
    60.00  0.07998  0.43887  -0.04556
    70.00  0.05659  0.45865  -0.05023
    80.00  0.02904  0.47072  -0.05406
    90.00  0.00009  0.47343  -0.05681
   100.00  -0.02017  0.47072  -0.05909
   110.00  -0.03951  0.45865  -0.05952
   120.00  -0.05584  0.43887  -0.05843
   130.00  -0.06811  0.41395  -0.05657
   140.00  -0.07610  0.38705  -0.05503
   150.00  -0.08201  0.36159  -0.05595
   160.00  -0.09127  0.34073  -0.06493
   170.00  -0.04553  0.32707  -0.05798
   180.00  0.00009  0.32231  -0.00009
EOT
