AeroDyn airfoil file.  Compatible with AeroDyn v13.0.
Interpolated thickness: 0.651

  1        Number of airfoil tables in this file
  9990     Reynolds number in millions.  For efficiency, make very large if only one table.
  0        Control setting
  10.7197  Stall angle (deg)
  -3.29285 Zero lift angle of attack (deg)
  3.2095   Cn slope for zero lift (dimensionless)
  0.784931 Cn at stall value for positive angle of attack
  -0.8     Cn at stall value for negative angle of attack
  -2.12    Angle of attack for minimum CD (deg)
  0.194098 Minimum CD value
  -180.00  0.00005  0.24020  -0.00005
  -170.00  0.18098  0.25908  0.18363
  -160.00  0.36237  0.31322  -0.06581
  -150.00  0.32563  0.39597  -0.02898
  -140.00  0.30221  0.49695  -0.00331
  -130.00  0.27053  0.60362  0.02153
  -120.00  0.22185  0.70244  0.04619
  -110.00  0.15710  0.78088  0.06906
  -100.00  0.08042  0.82877  0.08779
   -90.00  0.00005  0.83952  0.10010
   -80.00  -0.08031  0.82877  0.10919
   -70.00  -0.15700  0.78088  0.11085
   -60.00  -0.22174  0.70244  0.10657
   -50.00  -0.27042  0.60362  0.09914
   -40.00  -0.30211  0.49695  0.09307
   -30.00  -0.32553  0.39597  0.09670
   -20.00  -0.36134  0.31313  0.13197
   -10.00  -0.14781  0.23795  0.05831
    -4.17  -0.03301  0.19419  -0.06186
    -3.17  0.01934  0.19414  -0.06278
    -2.12  0.07353  0.19410  -0.06352
    -1.08  0.12817  0.19410  -0.06434
    -0.05  0.18236  0.19414  -0.06480
    -0.02  0.18249  0.19414  -0.06480
     1.16  0.24650  0.19424  -0.06539
     2.31  0.30679  0.19433  -0.06590
     3.47  0.36727  0.19448  -0.06624
     4.63  0.42586  0.19461  -0.06616
     5.79  0.48257  0.19478  -0.06574
     6.94  0.53634  0.19507  -0.06476
     8.10  0.58050  0.19538  -0.06205
    10.72  0.60056  0.20120  -0.04823
    13.34  0.52564  0.24185  -0.04455
    15.96  0.50758  0.26701  -0.04846
    18.58  0.51916  0.29207  -0.05453
    21.19  0.51628  0.32353  -0.06443
    23.81  0.50086  0.34521  -0.07699
    26.43  0.48545  0.36690  -0.08956
    29.05  0.47003  0.38858  -0.10212
    31.67  0.45908  0.41335  -0.11137
    34.29  0.45045  0.43972  -0.11890
    36.91  0.44182  0.46609  -0.12643
    39.53  0.43318  0.49245  -0.13396
    42.14  0.42186  0.52006  -0.14042
    44.76  0.40999  0.54791  -0.14665
    47.38  0.39812  0.57577  -0.15289
    50.00  0.38625  0.60362  -0.15912
    60.00  0.31691  0.70244  -0.18039
    70.00  0.22415  0.78088  -0.19889
    80.00  0.11486  0.82877  -0.21409
    90.00  0.00005  0.83952  -0.22502
   100.00  -0.08031  0.82877  -0.23407
   110.00  -0.15700  0.78088  -0.23577
   120.00  -0.22174  0.70244  -0.23145
   130.00  -0.27042  0.60362  -0.22406
   140.00  -0.30211  0.49695  -0.21795
   150.00  -0.32553  0.39597  -0.22158
   160.00  -0.36226  0.31322  -0.25721
   170.00  -0.18087  0.25908  -0.22966
   180.00  0.00005  0.24020  -0.00005
EOT
