AeroDyn airfoil file.  Compatible with AeroDyn v13.0.
Interpolated thickness: 0.334

  1        Number of airfoil tables in this file
  9990     Reynolds number in millions.  For efficiency, make very large if only one table.
  0        Control setting
  10.8057  Stall angle (deg)
  -3.54225 Zero lift angle of attack (deg)
  5.71384  Cn slope for zero lift (dimensionless)
  1.43086  Cn at stall value for positive angle of attack
  -0.8     Cn at stall value for negative angle of attack
  -2.12    Angle of attack for minimum CD (deg)
  0.0524908 Minimum CD value
  -180.00  0.00001  0.14047  -0.00001
  -170.00  0.34528  0.17649  0.35051
  -160.00  0.69143  0.27981  -0.12550
  -150.00  0.62132  0.43772  -0.05522
  -140.00  0.57663  0.63042  -0.00623
  -130.00  0.51616  0.83399  0.04117
  -120.00  0.42327  1.02257  0.08823
  -110.00  0.29971  1.17225  0.13187
  -100.00  0.15337  1.26365  0.16763
   -90.00  0.00001  1.28415  0.19111
   -80.00  -0.15334  1.26365  0.20846
   -70.00  -0.29969  1.17225  0.21162
   -60.00  -0.42325  1.02257  0.20347
   -50.00  -0.51614  0.83399  0.18927
   -40.00  -0.57660  0.63042  0.17770
   -30.00  -0.62130  0.43772  0.18463
   -20.00  -0.68965  0.27963  0.25193
   -10.00  -0.28216  0.13618  0.11137
    -4.17  -0.06308  0.05267  -0.11796
    -3.17  0.03682  0.05258  -0.11972
    -2.12  0.14022  0.05249  -0.12112
    -1.08  0.24450  0.05249  -0.12270
    -0.05  0.34791  0.05258  -0.12357
    -0.04  0.34815  0.05258  -0.12358
     1.17  0.47031  0.05277  -0.12470
     2.34  0.58536  0.05292  -0.12566
     3.51  0.70078  0.05322  -0.12632
     4.68  0.81258  0.05347  -0.12615
     5.85  0.92081  0.05380  -0.12537
     7.02  1.02342  0.05435  -0.12349
     8.19  1.10768  0.05494  -0.11832
    10.81  1.14597  0.06605  -0.09195
    13.42  1.00299  0.14361  -0.08493
    16.03  0.96852  0.19163  -0.09239
    18.64  0.99063  0.23945  -0.10398
    21.26  0.98513  0.29949  -0.12285
    23.87  0.95571  0.34087  -0.14683
    26.48  0.92629  0.38224  -0.17081
    29.10  0.89687  0.42362  -0.19479
    31.71  0.87598  0.47089  -0.21244
    34.32  0.85951  0.52121  -0.22681
    36.94  0.84303  0.57153  -0.24118
    39.55  0.82656  0.62185  -0.25555
    42.16  0.80496  0.67452  -0.26787
    44.77  0.78230  0.72768  -0.27977
    47.39  0.75965  0.78083  -0.29167
    50.00  0.73699  0.83399  -0.30357
    60.00  0.60467  1.02257  -0.34414
    70.00  0.42765  1.17225  -0.37946
    80.00  0.21909  1.26365  -0.40846
    90.00  0.00001  1.28415  -0.42932
   100.00  -0.15334  1.26365  -0.44658
   110.00  -0.29969  1.17225  -0.44983
   120.00  -0.42325  1.02257  -0.44159
   130.00  -0.51614  0.83399  -0.42748
   140.00  -0.57660  0.63042  -0.41582
   150.00  -0.62130  0.43772  -0.42275
   160.00  -0.69140  0.27981  -0.49075
   170.00  -0.34526  0.17649  -0.43817
   180.00  0.00001  0.14047  -0.00001
EOT
