AeroDyn airfoil file.  Compatible with AeroDyn v13.0.
Interpolated thickness: 0.917

  1        Number of airfoil tables in this file
  9990     Reynolds number in millions.  For efficiency, make very large if only one table.
  0        Control setting
  10.6475  Stall angle (deg)
  -2.4773  Zero lift angle of attack (deg)
  1.02698  Cn slope for zero lift (dimensionless)
  0.235251 Cn at stall value for positive angle of attack
  -0.8     Cn at stall value for negative angle of attack
  -2.12    Angle of attack for minimum CD (deg)
  0.312923 Minimum CD value
  -180.00  0.00009  0.32389  -0.00009
  -170.00  0.04312  0.32838  0.04360
  -160.00  0.08626  0.34125  -0.01573
  -150.00  0.07752  0.36093  -0.00697
  -140.00  0.07195  0.38495  -0.00086
  -130.00  0.06441  0.41032  0.00504
  -120.00  0.05284  0.43382  0.01091
  -110.00  0.03744  0.45247  0.01635
  -100.00  0.01920  0.46386  0.02080
   -90.00  0.00009  0.46642  0.02373
   -80.00  -0.01902  0.46386  0.02589
   -70.00  -0.03726  0.45247  0.02629
   -60.00  -0.05266  0.43382  0.02527
   -50.00  -0.06424  0.41032  0.02350
   -40.00  -0.07177  0.38495  0.02206
   -30.00  -0.07734  0.36093  0.02292
   -20.00  -0.08586  0.34123  0.03131
   -10.00  -0.03508  0.32335  0.01379
    -4.17  -0.00777  0.31294  -0.01479
    -3.17  0.00468  0.31293  -0.01501
    -2.12  0.01756  0.31292  -0.01518
    -1.08  0.03056  0.31292  -0.01538
    -0.05  0.04345  0.31293  -0.01549
    -0.01  0.04348  0.31293  -0.01549
     1.15  0.05870  0.31296  -0.01563
     2.29  0.07304  0.31298  -0.01575
     3.44  0.08742  0.31301  -0.01583
     4.59  0.10135  0.31305  -0.01581
     5.73  0.11484  0.31309  -0.01571
     6.88  0.12763  0.31315  -0.01548
     8.02  0.13813  0.31323  -0.01483
    10.65  0.14290  0.31461  -0.01155
    13.27  0.12508  0.32428  -0.01067
    15.89  0.12079  0.33026  -0.01160
    18.52  0.12354  0.33622  -0.01305
    21.14  0.12286  0.34371  -0.01540
    23.77  0.11919  0.34886  -0.01839
    26.39  0.11553  0.35402  -0.02138
    29.01  0.11186  0.35917  -0.02436
    31.64  0.10926  0.36507  -0.02656
    34.26  0.10720  0.37134  -0.02835
    36.88  0.10515  0.37761  -0.03014
    39.51  0.10310  0.38388  -0.03194
    42.13  0.10040  0.39044  -0.03347
    44.75  0.09758  0.39707  -0.03495
    47.38  0.09476  0.40369  -0.03644
    50.00  0.09194  0.41032  -0.03792
    60.00  0.07544  0.43382  -0.04298
    70.00  0.05338  0.45247  -0.04738
    80.00  0.02739  0.46386  -0.05099
    90.00  0.00009  0.46642  -0.05359
   100.00  -0.01902  0.46386  -0.05574
   110.00  -0.03726  0.45247  -0.05615
   120.00  -0.05266  0.43382  -0.05512
   130.00  -0.06424  0.41032  -0.05336
   140.00  -0.07177  0.38495  -0.05191
   150.00  -0.07734  0.36093  -0.05277
   160.00  -0.08608  0.34125  -0.06125
   170.00  -0.04294  0.32838  -0.05469
   180.00  0.00009  0.32389  -0.00009
EOT
