AeroDyn airfoil file.  Compatible with AeroDyn v13.0.
Interpolated thickness: 0.674

  1        Number of airfoil tables in this file
  9990     Reynolds number in millions.  For efficiency, make very large if only one table.
  0        Control setting
  10.7135  Stall angle (deg)
  -3.2633  Zero lift angle of attack (deg)
  3.0244   Cn slope for zero lift (dimensionless)
  0.737773 Cn at stall value for positive angle of attack
  -0.8     Cn at stall value for negative angle of attack
  -2.12    Angle of attack for minimum CD (deg)
  0.204372 Minimum CD value
  -180.00  0.00006  0.24744  -0.00006
  -170.00  0.16906  0.26507  0.17152
  -160.00  0.33850  0.31564  -0.06148
  -150.00  0.30418  0.39294  -0.02708
  -140.00  0.28230  0.48726  -0.00310
  -130.00  0.25271  0.58691  0.02010
  -120.00  0.20724  0.67922  0.04314
  -110.00  0.14676  0.75248  0.06450
  -100.00  0.07512  0.79722  0.08200
   -90.00  0.00006  0.80726  0.09350
   -80.00  -0.07501  0.79722  0.10199
   -70.00  -0.14664  0.75248  0.10353
   -60.00  -0.20712  0.67922  0.09954
   -50.00  -0.25259  0.58691  0.09260
   -40.00  -0.28219  0.48726  0.08693
   -30.00  -0.30407  0.39294  0.09032
   -20.00  -0.33752  0.31556  0.12327
   -10.00  -0.13806  0.24534  0.05446
    -4.17  -0.03083  0.20446  -0.05779
    -3.17  0.01807  0.20442  -0.05865
    -2.12  0.06869  0.20437  -0.05934
    -1.08  0.11973  0.20437  -0.06011
    -0.05  0.17035  0.20442  -0.06054
    -0.02  0.17047  0.20442  -0.06054
     1.16  0.23026  0.20451  -0.06109
     2.31  0.28658  0.20458  -0.06156
     3.47  0.34308  0.20473  -0.06188
     4.63  0.39780  0.20485  -0.06180
     5.78  0.45078  0.20501  -0.06142
     6.94  0.50100  0.20528  -0.06050
     8.09  0.54225  0.20557  -0.05797
    10.71  0.56099  0.21101  -0.04506
    13.33  0.49100  0.24897  -0.04162
    15.95  0.47413  0.27248  -0.04527
    18.57  0.48495  0.29589  -0.05095
    21.19  0.48226  0.32528  -0.06019
    23.81  0.46786  0.34553  -0.07192
    26.43  0.45346  0.36578  -0.08366
    29.05  0.43906  0.38603  -0.09540
    31.67  0.42884  0.40917  -0.10404
    34.29  0.42077  0.43380  -0.11107
    36.90  0.41271  0.45843  -0.11811
    39.52  0.40464  0.48307  -0.12514
    42.14  0.39407  0.50885  -0.13117
    44.76  0.38298  0.53487  -0.13700
    47.38  0.37189  0.56089  -0.14282
    50.00  0.36080  0.58691  -0.14864
    60.00  0.29603  0.67922  -0.16850
    70.00  0.20938  0.75248  -0.18579
    80.00  0.10729  0.79722  -0.19999
    90.00  0.00006  0.80726  -0.21020
   100.00  -0.07501  0.79722  -0.21865
   110.00  -0.14664  0.75248  -0.22024
   120.00  -0.20712  0.67922  -0.21620
   130.00  -0.25259  0.58691  -0.20930
   140.00  -0.28219  0.48726  -0.20359
   150.00  -0.30407  0.39294  -0.20698
   160.00  -0.33838  0.31564  -0.24027
   170.00  -0.16895  0.26507  -0.21453
   180.00  0.00006  0.24744  -0.00006
EOT
