AeroDyn airfoil file.  Compatible with AeroDyn v13.0.
Interpolated thickness: 0.817

  1        Number of airfoil tables in this file
  9990     Reynolds number in millions.  For efficiency, make very large if only one table.
  0        Control setting
  10.6747  Stall angle (deg)
  -3.04914 Zero lift angle of attack (deg)
  1.83726  Cn slope for zero lift (dimensionless)
  0.440071 Cn at stall value for positive angle of attack
  -0.8     Cn at stall value for negative angle of attack
  -2.12    Angle of attack for minimum CD (deg)
  0.268252 Minimum CD value
  -180.00  0.00008  0.29243  -0.00008
  -170.00  0.09495  0.30232  0.09624
  -160.00  0.19006  0.33071  -0.03456
  -150.00  0.17080  0.37410  -0.01525
  -140.00  0.15852  0.42705  -0.00179
  -130.00  0.14190  0.48299  0.01124
  -120.00  0.11638  0.53481  0.02417
  -110.00  0.08243  0.57593  0.03616
  -100.00  0.04221  0.60105  0.04599
   -90.00  0.00008  0.60668  0.05244
   -80.00  -0.04206  0.60105  0.05721
   -70.00  -0.08227  0.57593  0.05807
   -60.00  -0.11623  0.53481  0.05584
   -50.00  -0.14175  0.48299  0.05193
   -40.00  -0.15836  0.42705  0.04876
   -30.00  -0.17064  0.37410  0.05066
   -20.00  -0.18943  0.33066  0.06915
   -10.00  -0.07746  0.29125  0.03053
    -4.17  -0.01726  0.26830  -0.03249
    -3.17  0.01019  0.26828  -0.03297
    -2.12  0.03860  0.26825  -0.03335
    -1.08  0.06726  0.26825  -0.03379
    -0.05  0.09567  0.26828  -0.03403
    -0.01  0.09574  0.26828  -0.03403
     1.15  0.12930  0.26833  -0.03434
     2.30  0.16091  0.26837  -0.03460
     3.45  0.19263  0.26845  -0.03478
     4.60  0.22335  0.26852  -0.03474
     5.75  0.25309  0.26861  -0.03452
     6.90  0.28128  0.26876  -0.03401
     8.05  0.30443  0.26893  -0.03258
    10.67  0.31496  0.27198  -0.02534
    13.30  0.27567  0.29329  -0.02341
    15.92  0.26620  0.30648  -0.02546
    18.54  0.27227  0.31962  -0.02864
    21.16  0.27076  0.33612  -0.03383
    23.78  0.26268  0.34749  -0.04042
    26.40  0.25459  0.35886  -0.04701
    29.03  0.24651  0.37023  -0.05360
    31.65  0.24077  0.38322  -0.05845
    34.27  0.23624  0.39704  -0.06239
    36.89  0.23172  0.41087  -0.06634
    39.51  0.22719  0.42470  -0.07029
    42.13  0.22125  0.43917  -0.07368
    44.76  0.21503  0.45378  -0.07695
    47.38  0.20880  0.46838  -0.08022
    50.00  0.20258  0.48299  -0.08349
    60.00  0.16622  0.53481  -0.09463
    70.00  0.11758  0.57593  -0.10434
    80.00  0.06027  0.60105  -0.11231
    90.00  0.00008  0.60668  -0.11804
   100.00  -0.04206  0.60105  -0.12278
   110.00  -0.08227  0.57593  -0.12367
   120.00  -0.11623  0.53481  -0.12141
   130.00  -0.14175  0.48299  -0.11753
   140.00  -0.15836  0.42705  -0.11433
   150.00  -0.17064  0.37410  -0.11623
   160.00  -0.18991  0.33071  -0.13492
   170.00  -0.09480  0.30232  -0.12047
   180.00  0.00008  0.29243  -0.00008
EOT
