AeroDyn airfoil file.  Compatible with AeroDyn v13.0.
Interpolated thickness: 0.44

  1        Number of airfoil tables in this file
  9990     Reynolds number in millions.  For efficiency, make very large if only one table.
  0        Control setting
  10.777   Stall angle (deg)
  -3.47887 Zero lift angle of attack (deg)
  4.88603  Cn slope for zero lift (dimensionless)
  1.2157   Cn at stall value for positive angle of attack
  -0.8     Cn at stall value for negative angle of attack
  -2.12    Angle of attack for minimum CD (deg)
  0.0998421 Minimum CD value
  -180.00  0.00003  0.17382  -0.00003
  -170.00  0.29034  0.20411  0.29471
  -160.00  0.58139  0.29098  -0.10554
  -150.00  0.52245  0.42376  -0.04645
  -140.00  0.48487  0.58579  -0.00526
  -130.00  0.43403  0.75696  0.03461
  -120.00  0.35592  0.91553  0.07417
  -110.00  0.25203  1.04138  0.11087
  -100.00  0.12897  1.11823  0.14093
   -90.00  0.00003  1.13547  0.16068
   -80.00  -0.12892  1.11823  0.17527
   -70.00  -0.25197  1.04138  0.17792
   -60.00  -0.35587  0.91553  0.17107
   -50.00  -0.43397  0.75696  0.15913
   -40.00  -0.48482  0.58579  0.14941
   -30.00  -0.52239  0.42376  0.15523
   -20.00  -0.57987  0.29083  0.21182
   -10.00  -0.23724  0.17021  0.09363
    -4.17  -0.05303  0.09999  -0.09921
    -3.17  0.03097  0.09992  -0.10068
    -2.12  0.11792  0.09984  -0.10186
    -1.08  0.20561  0.09984  -0.10318
    -0.05  0.29255  0.09992  -0.10392
    -0.04  0.29275  0.09992  -0.10392
     1.17  0.39547  0.10008  -0.10487
     2.33  0.49221  0.10021  -0.10568
     3.50  0.58926  0.10046  -0.10623
     4.66  0.68326  0.10067  -0.10609
     5.83  0.77427  0.10094  -0.10543
     7.00  0.86055  0.10140  -0.10385
     8.16  0.93139  0.10191  -0.09950
    10.78  0.96359  0.11124  -0.07733
    13.39  0.84337  0.17646  -0.07143
    16.01  0.81439  0.21683  -0.07770
    18.62  0.83298  0.25705  -0.08744
    21.24  0.82836  0.30753  -0.10332
    23.85  0.80362  0.34232  -0.12348
    26.47  0.77888  0.37711  -0.14364
    29.08  0.75414  0.41190  -0.16381
    31.70  0.73658  0.45165  -0.17864
    34.31  0.72273  0.49396  -0.19073
    36.93  0.70887  0.53627  -0.20281
    39.54  0.69502  0.57858  -0.21489
    42.16  0.67686  0.62287  -0.22525
    44.77  0.65781  0.66757  -0.23526
    47.39  0.63876  0.71226  -0.24526
    50.00  0.61971  0.75696  -0.25527
    60.00  0.50845  0.91553  -0.28938
    70.00  0.35961  1.04138  -0.31908
    80.00  0.18424  1.11823  -0.34347
    90.00  0.00003  1.13547  -0.36101
   100.00  -0.12892  1.11823  -0.37552
   110.00  -0.25197  1.04138  -0.37825
   120.00  -0.35587  0.91553  -0.37132
   130.00  -0.43397  0.75696  -0.35946
   140.00  -0.48482  0.58579  -0.34966
   150.00  -0.52239  0.42376  -0.35548
   160.00  -0.58134  0.29098  -0.41266
   170.00  -0.29029  0.20411  -0.36845
   180.00  0.00003  0.17382  -0.00003
EOT
