AeroDyn airfoil file.  Compatible with AeroDyn v13.0.
Interpolated thickness: 0.364

  1        Number of airfoil tables in this file
  9990     Reynolds number in millions.  For efficiency, make very large if only one table.
  0        Control setting
  10.7976  Stall angle (deg)
  -3.52549 Zero lift angle of attack (deg)
  5.48052  Cn slope for zero lift (dimensionless)
  1.37005  Cn at stall value for positive angle of attack
  -0.8     Cn at stall value for negative angle of attack
  -2.12    Angle of attack for minimum CD (deg)
  0.0658921 Minimum CD value
  -180.00  0.00002  0.14991  -0.00002
  -170.00  0.32973  0.18431  0.33472
  -160.00  0.66028  0.28297  -0.11985
  -150.00  0.59334  0.43377  -0.05274
  -140.00  0.55066  0.61779  -0.00596
  -130.00  0.49292  0.81219  0.03932
  -120.00  0.40421  0.99228  0.08425
  -110.00  0.28622  1.13521  0.12593
  -100.00  0.14646  1.22249  0.16007
   -90.00  0.00002  1.24207  0.18250
   -80.00  -0.14643  1.22249  0.19907
   -70.00  -0.28618  1.13521  0.20208
   -60.00  -0.40418  0.99228  0.19430
   -50.00  -0.49288  0.81219  0.18074
   -40.00  -0.55063  0.61779  0.16970
   -30.00  -0.59330  0.43377  0.17631
   -20.00  -0.65858  0.28280  0.24058
   -10.00  -0.26945  0.14581  0.10635
    -4.17  -0.06024  0.06606  -0.11266
    -3.17  0.03516  0.06598  -0.11433
    -2.12  0.13391  0.06589  -0.11567
    -1.08  0.23350  0.06589  -0.11717
    -0.05  0.33224  0.06598  -0.11801
    -0.04  0.33247  0.06598  -0.11801
     1.17  0.44912  0.06616  -0.11909
     2.34  0.55900  0.06631  -0.12001
     3.51  0.66922  0.06659  -0.12063
     4.68  0.77598  0.06683  -0.12048
     5.85  0.87933  0.06714  -0.11973
     7.01  0.97732  0.06766  -0.11793
     8.18  1.05778  0.06824  -0.11299
    10.80  1.09435  0.07884  -0.08782
    13.41  0.95781  0.15291  -0.08111
    16.02  0.92490  0.19876  -0.08823
    18.64  0.94601  0.24443  -0.09930
    21.25  0.94076  0.30176  -0.11732
    23.87  0.91267  0.34128  -0.14022
    26.48  0.88457  0.38079  -0.16312
    29.09  0.85648  0.42030  -0.18602
    31.71  0.83653  0.46544  -0.20287
    34.32  0.82080  0.51350  -0.21660
    36.93  0.80506  0.56155  -0.23032
    39.55  0.78933  0.60960  -0.24404
    42.16  0.76870  0.65990  -0.25581
    44.77  0.74707  0.71066  -0.26717
    47.39  0.72543  0.76143  -0.27854
    50.00  0.70380  0.81219  -0.28990
    60.00  0.57744  0.99228  -0.32864
    70.00  0.40840  1.13521  -0.36237
    80.00  0.20923  1.22249  -0.39007
    90.00  0.00002  1.24207  -0.40999
   100.00  -0.14643  1.22249  -0.42647
   110.00  -0.28618  1.13521  -0.42957
   120.00  -0.40418  0.99228  -0.42170
   130.00  -0.49288  0.81219  -0.40823
   140.00  -0.55063  0.61779  -0.39710
   150.00  -0.59330  0.43377  -0.40371
   160.00  -0.66025  0.28297  -0.46865
   170.00  -0.32970  0.18431  -0.41844
   180.00  0.00002  0.14991  -0.00002
EOT
