AeroDyn airfoil file.  Compatible with AeroDyn v13.0.
Interpolated thickness: 0.684

  1        Number of airfoil tables in this file
  9990     Reynolds number in millions.  For efficiency, make very large if only one table.
  0        Control setting
  10.7108  Stall angle (deg)
  -3.24949 Zero lift angle of attack (deg)
  2.94377  Cn slope for zero lift (dimensionless)
  0.717257 Cn at stall value for positive angle of attack
  -0.8     Cn at stall value for negative angle of attack
  -2.12    Angle of attack for minimum CD (deg)
  0.208839 Minimum CD value
  -180.00  0.00006  0.25058  -0.00006
  -170.00  0.16388  0.26767  0.16626
  -160.00  0.32812  0.31670  -0.05960
  -150.00  0.29485  0.39162  -0.02625
  -140.00  0.27365  0.48305  -0.00301
  -130.00  0.24496  0.57964  0.01948
  -120.00  0.20088  0.66912  0.04181
  -110.00  0.14226  0.74014  0.06252
  -100.00  0.07282  0.78350  0.07948
   -90.00  0.00006  0.79323  0.09063
   -80.00  -0.07270  0.78350  0.09886
   -70.00  -0.14214  0.74014  0.10035
   -60.00  -0.20077  0.66912  0.09649
   -50.00  -0.24484  0.57964  0.08975
   -40.00  -0.27353  0.48305  0.08426
   -30.00  -0.29474  0.39162  0.08755
   -20.00  -0.32717  0.31661  0.11948
   -10.00  -0.13383  0.24855  0.05279
    -4.17  -0.02988  0.20892  -0.05602
    -3.17  0.01752  0.20888  -0.05686
    -2.12  0.06658  0.20884  -0.05752
    -1.08  0.11606  0.20884  -0.05827
    -0.05  0.16513  0.20888  -0.05868
    -0.02  0.16524  0.20888  -0.05869
     1.16  0.22320  0.20897  -0.05922
     2.31  0.27779  0.20905  -0.05968
     3.47  0.33256  0.20919  -0.05999
     4.62  0.38560  0.20930  -0.05991
     5.78  0.43695  0.20946  -0.05954
     6.94  0.48564  0.20972  -0.05865
     8.09  0.52562  0.21000  -0.05619
    10.71  0.54378  0.21527  -0.04368
    13.33  0.47595  0.25207  -0.04035
    15.95  0.45959  0.27486  -0.04389
    18.57  0.47008  0.29755  -0.04939
    21.19  0.46747  0.32603  -0.05834
    23.81  0.45351  0.34567  -0.06972
    26.43  0.43955  0.36530  -0.08110
    29.05  0.42560  0.38493  -0.09248
    31.67  0.41568  0.40736  -0.10085
    34.28  0.40787  0.43123  -0.10767
    36.90  0.40005  0.45511  -0.11449
    39.52  0.39223  0.47898  -0.12130
    42.14  0.38198  0.50398  -0.12715
    44.76  0.37123  0.52920  -0.13280
    47.38  0.36049  0.55442  -0.13844
    50.00  0.34974  0.57964  -0.14409
    60.00  0.28695  0.66912  -0.16334
    70.00  0.20296  0.74014  -0.18010
    80.00  0.10401  0.78350  -0.19386
    90.00  0.00006  0.79323  -0.20375
   100.00  -0.07270  0.78350  -0.21194
   110.00  -0.14214  0.74014  -0.21348
   120.00  -0.20077  0.66912  -0.20957
   130.00  -0.24484  0.57964  -0.20288
   140.00  -0.27353  0.48305  -0.19735
   150.00  -0.29474  0.39162  -0.20064
   160.00  -0.32800  0.31670  -0.23290
   170.00  -0.16376  0.26767  -0.20795
   180.00  0.00006  0.25058  -0.00006
EOT
