AeroDyn airfoil file.  Compatible with AeroDyn v13.0.
Interpolated thickness: 0.846

  1        Number of airfoil tables in this file
  9990     Reynolds number in millions.  For efficiency, make very large if only one table.
  0        Control setting
  10.6668  Stall angle (deg)
  -2.94167 Zero lift angle of attack (deg)
  1.60292  Cn slope for zero lift (dimensionless)
  0.380713 Cn at stall value for positive angle of attack
  -0.8     Cn at stall value for negative angle of attack
  -2.12    Angle of attack for minimum CD (deg)
  0.281207 Minimum CD value
  -180.00  0.00008  0.30155  -0.00008
  -170.00  0.07992  0.30988  0.08097
  -160.00  0.15996  0.33377  -0.02910
  -150.00  0.14375  0.37028  -0.01285
  -140.00  0.13341  0.41484  -0.00152
  -130.00  0.11943  0.46191  0.00944
  -120.00  0.09795  0.50552  0.02033
  -110.00  0.06938  0.54013  0.03042
  -100.00  0.03554  0.56126  0.03868
   -90.00  0.00008  0.56601  0.04411
   -80.00  -0.03538  0.56126  0.04813
   -70.00  -0.06922  0.54013  0.04886
   -60.00  -0.09779  0.50552  0.04697
   -50.00  -0.11927  0.46191  0.04369
   -40.00  -0.13325  0.41484  0.04101
   -30.00  -0.14359  0.37028  0.04261
   -20.00  -0.15939  0.33373  0.05818
   -10.00  -0.06517  0.30056  0.02567
    -4.17  -0.01451  0.28125  -0.02735
    -3.17  0.00859  0.28123  -0.02776
    -2.12  0.03250  0.28121  -0.02808
    -1.08  0.05661  0.28121  -0.02845
    -0.05  0.08052  0.28123  -0.02865
    -0.01  0.08058  0.28123  -0.02865
     1.15  0.10883  0.28127  -0.02891
     2.30  0.13543  0.28131  -0.02913
     3.45  0.16212  0.28138  -0.02929
     4.60  0.18797  0.28143  -0.02925
     5.75  0.21300  0.28151  -0.02907
     6.90  0.23672  0.28164  -0.02863
     8.04  0.25621  0.28177  -0.02744
    10.67  0.26506  0.28434  -0.02134
    13.29  0.23200  0.30228  -0.01972
    15.91  0.22403  0.31338  -0.02144
    18.53  0.22914  0.32444  -0.02412
    21.16  0.22787  0.33832  -0.02848
    23.78  0.22107  0.34789  -0.03403
    26.40  0.21426  0.35746  -0.03957
    29.02  0.20746  0.36702  -0.04512
    31.64  0.20263  0.37795  -0.04920
    34.27  0.19882  0.38959  -0.05252
    36.89  0.19501  0.40122  -0.05585
    39.51  0.19120  0.41286  -0.05917
    42.13  0.18621  0.42504  -0.06202
    44.76  0.18097  0.43733  -0.06477
    47.38  0.17573  0.44962  -0.06752
    50.00  0.17049  0.46191  -0.07027
    60.00  0.13990  0.50552  -0.07965
    70.00  0.09896  0.54013  -0.08782
    80.00  0.05074  0.56126  -0.09453
    90.00  0.00008  0.56601  -0.09935
   100.00  -0.03538  0.56126  -0.10334
   110.00  -0.06922  0.54013  -0.10409
   120.00  -0.09779  0.50552  -0.10219
   130.00  -0.11927  0.46191  -0.09892
   140.00  -0.13325  0.41484  -0.09623
   150.00  -0.14359  0.37028  -0.09783
   160.00  -0.15980  0.33377  -0.11355
   170.00  -0.07976  0.30988  -0.10140
   180.00  0.00008  0.30155  -0.00008
EOT
