AeroDyn airfoil file.  Compatible with AeroDyn v13.0.
Interpolated thickness: 0.344

  1        Number of airfoil tables in this file
  9990     Reynolds number in millions.  For efficiency, make very large if only one table.
  0        Control setting
  10.803   Stall angle (deg)
  -3.53675 Zero lift angle of attack (deg)
  5.63615  Cn slope for zero lift (dimensionless)
  1.41059  Cn at stall value for positive angle of attack
  -0.8     Cn at stall value for negative angle of attack
  -2.12    Angle of attack for minimum CD (deg)
  0.0569579 Minimum CD value
  -180.00  0.00001  0.14362  -0.00001
  -170.00  0.34010  0.17909  0.34525
  -160.00  0.68105  0.28086  -0.12362
  -150.00  0.61199  0.43640  -0.05439
  -140.00  0.56797  0.62621  -0.00614
  -130.00  0.50841  0.82672  0.04055
  -120.00  0.41692  1.01247  0.08691
  -110.00  0.29521  1.15990  0.12989
  -100.00  0.15107  1.24993  0.16511
   -90.00  0.00001  1.27013  0.18824
   -80.00  -0.15104  1.24993  0.20533
   -70.00  -0.29519  1.15990  0.20844
   -60.00  -0.41689  1.01247  0.20041
   -50.00  -0.50839  0.82672  0.18643
   -40.00  -0.56794  0.62621  0.17503
   -30.00  -0.61197  0.43640  0.18185
   -20.00  -0.67929  0.28069  0.24814
   -10.00  -0.27792  0.13939  0.10969
    -4.17  -0.06213  0.05713  -0.11619
    -3.17  0.03627  0.05704  -0.11792
    -2.12  0.13812  0.05696  -0.11930
    -1.08  0.24083  0.05696  -0.12086
    -0.05  0.34269  0.05704  -0.12172
    -0.04  0.34292  0.05704  -0.12172
     1.17  0.46324  0.05723  -0.12283
     2.34  0.57657  0.05738  -0.12378
     3.51  0.69026  0.05768  -0.12442
     4.68  0.80038  0.05792  -0.12426
     5.85  0.90698  0.05824  -0.12349
     7.02  1.00805  0.05878  -0.12164
     8.19  1.09105  0.05937  -0.11654
    10.80  1.12876  0.07031  -0.09057
    13.42  0.98793  0.14671  -0.08366
    16.03  0.95398  0.19401  -0.09100
    18.64  0.97576  0.24111  -0.10242
    21.26  0.97034  0.30025  -0.12101
    23.87  0.94136  0.34100  -0.14463
    26.48  0.91239  0.38176  -0.16825
    29.09  0.88341  0.42251  -0.19187
    31.71  0.86283  0.46907  -0.20925
    34.32  0.84660  0.51864  -0.22341
    36.93  0.83038  0.56820  -0.23756
    39.55  0.81415  0.61776  -0.25172
    42.16  0.79287  0.66965  -0.26385
    44.77  0.77056  0.72200  -0.27557
    47.39  0.74824  0.77436  -0.28729
    50.00  0.72593  0.82672  -0.29901
    60.00  0.59559  1.01247  -0.33898
    70.00  0.42123  1.15990  -0.37376
    80.00  0.21580  1.24993  -0.40233
    90.00  0.00001  1.27013  -0.42287
   100.00  -0.15104  1.24993  -0.43988
   110.00  -0.29519  1.15990  -0.44307
   120.00  -0.41689  1.01247  -0.43496
   130.00  -0.50839  0.82672  -0.42106
   140.00  -0.56794  0.62621  -0.40958
   150.00  -0.61197  0.43640  -0.41640
   160.00  -0.68102  0.28086  -0.48338
   170.00  -0.34007  0.17909  -0.43159
   180.00  0.00001  0.14362  -0.00001
EOT
