AeroDyn airfoil file.  Compatible with AeroDyn v13.0.
Interpolated thickness: 0.634

  1        Number of airfoil tables in this file
  9990     Reynolds number in millions.  For efficiency, make very large if only one table.
  0        Control setting
  10.7243  Stall angle (deg)
  -3.31296 Zero lift angle of attack (deg)
  3.34601  Cn slope for zero lift (dimensionless)
  0.819762 Cn at stall value for positive angle of attack
  -0.8     Cn at stall value for negative angle of attack
  -2.12    Angle of attack for minimum CD (deg)
  0.186504 Minimum CD value
  -180.00  0.00005  0.23485  -0.00005
  -170.00  0.18979  0.25465  0.19258
  -160.00  0.38002  0.31143  -0.06901
  -150.00  0.34149  0.39821  -0.03039
  -140.00  0.31693  0.50411  -0.00347
  -130.00  0.28370  0.61598  0.02258
  -120.00  0.23265  0.71961  0.04844
  -110.00  0.16475  0.80187  0.07243
  -100.00  0.08433  0.85209  0.09207
   -90.00  0.00005  0.86336  0.10498
   -80.00  -0.08422  0.85209  0.11452
   -70.00  -0.16465  0.80187  0.11625
   -60.00  -0.23255  0.71961  0.11177
   -50.00  -0.28360  0.61598  0.10397
   -40.00  -0.31683  0.50411  0.09761
   -30.00  -0.34139  0.39821  0.10142
   -20.00  -0.37895  0.31133  0.13840
   -10.00  -0.15502  0.23249  0.06116
    -4.17  -0.03462  0.18660  -0.06487
    -3.17  0.02028  0.18655  -0.06584
    -2.12  0.07710  0.18650  -0.06661
    -1.08  0.13441  0.18650  -0.06747
    -0.05  0.19124  0.18655  -0.06795
    -0.02  0.19137  0.18655  -0.06796
     1.16  0.25850  0.18666  -0.06857
     2.32  0.32173  0.18674  -0.06910
     3.47  0.38516  0.18691  -0.06946
     4.63  0.44660  0.18704  -0.06937
     5.79  0.50607  0.18722  -0.06894
     6.95  0.56246  0.18752  -0.06791
     8.11  0.60877  0.18785  -0.06506
    10.72  0.62981  0.19395  -0.05058
    13.34  0.55124  0.23658  -0.04672
    15.96  0.53230  0.26297  -0.05082
    18.58  0.54445  0.28925  -0.05718
    21.20  0.54142  0.32224  -0.06756
    23.82  0.52526  0.34498  -0.08074
    26.43  0.50909  0.36772  -0.09392
    29.05  0.49292  0.39046  -0.10709
    31.67  0.48144  0.41643  -0.11679
    34.29  0.47239  0.44409  -0.12469
    36.91  0.46333  0.47174  -0.13259
    39.53  0.45428  0.49939  -0.14048
    42.14  0.44241  0.52834  -0.14725
    44.76  0.42996  0.55755  -0.15379
    47.38  0.41751  0.58676  -0.16033
    50.00  0.40506  0.61598  -0.16687
    60.00  0.33234  0.71961  -0.18917
    70.00  0.23506  0.80187  -0.20858
    80.00  0.12045  0.85209  -0.22452
    90.00  0.00005  0.86336  -0.23598
   100.00  -0.08422  0.85209  -0.24546
   110.00  -0.16465  0.80187  -0.24725
   120.00  -0.23255  0.71961  -0.24272
   130.00  -0.28360  0.61598  -0.23497
   140.00  -0.31683  0.50411  -0.22856
   150.00  -0.34139  0.39821  -0.23237
   160.00  -0.37991  0.31143  -0.26974
   170.00  -0.18969  0.25465  -0.24084
   180.00  0.00005  0.23485  -0.00005
EOT
