AeroDyn airfoil file.  Compatible with AeroDyn v13.0.
Interpolated thickness: 0.489

  1        Number of airfoil tables in this file
  9990     Reynolds number in millions.  For efficiency, make very large if only one table.
  0        Control setting
  10.7637  Stall angle (deg)
  -3.44477 Zero lift angle of attack (deg)
  4.50012  Cn slope for zero lift (dimensionless)
  1.11596  Cn at stall value for positive angle of attack
  -0.8     Cn at stall value for negative angle of attack
  -2.12    Angle of attack for minimum CD (deg)
  0.121731 Minimum CD value
  -180.00  0.00003  0.18924  -0.00003
  -170.00  0.26495  0.21687  0.26891
  -160.00  0.53053  0.29614  -0.09632
  -150.00  0.47674  0.41730  -0.04239
  -140.00  0.44245  0.56516  -0.00481
  -130.00  0.39606  0.72135  0.03157
  -120.00  0.32479  0.86604  0.06767
  -110.00  0.22998  0.98088  0.10116
  -100.00  0.11770  1.05101  0.12859
   -90.00  0.00003  1.06674  0.14661
   -80.00  -0.11763  1.05101  0.15992
   -70.00  -0.22992  0.98088  0.16234
   -60.00  -0.32472  0.86604  0.15609
   -50.00  -0.39599  0.72135  0.14520
   -40.00  -0.44239  0.56516  0.13632
   -30.00  -0.47668  0.41730  0.14164
   -20.00  -0.52912  0.29601  0.19327
   -10.00  -0.21647  0.18594  0.08543
    -4.17  -0.04838  0.12187  -0.09053
    -3.17  0.02827  0.12180  -0.09188
    -2.12  0.10761  0.12173  -0.09295
    -1.08  0.18762  0.12173  -0.09416
    -0.05  0.26696  0.12180  -0.09484
    -0.03  0.26715  0.12180  -0.09484
     1.16  0.36087  0.12195  -0.09570
     2.33  0.44915  0.12206  -0.09644
     3.49  0.53771  0.12229  -0.09694
     4.66  0.62349  0.12248  -0.09682
     5.82  0.70653  0.12273  -0.09621
     6.98  0.78526  0.12315  -0.09477
     8.15  0.84991  0.12361  -0.09080
    10.76  0.87929  0.13213  -0.07058
    13.38  0.76958  0.19164  -0.06519
    16.00  0.74314  0.22849  -0.07091
    18.61  0.76010  0.26518  -0.07980
    21.23  0.75588  0.31124  -0.09428
    23.84  0.73331  0.34299  -0.11268
    26.46  0.71074  0.37474  -0.13108
    29.07  0.68816  0.40648  -0.14948
    31.69  0.67214  0.44275  -0.16302
    34.31  0.65950  0.48136  -0.17405
    36.92  0.64685  0.51997  -0.18507
    39.54  0.63421  0.55858  -0.19610
    42.15  0.61764  0.59899  -0.20555
    44.77  0.60026  0.63978  -0.21468
    47.38  0.58288  0.68056  -0.22381
    50.00  0.56549  0.72135  -0.23294
    60.00  0.46397  0.86604  -0.26407
    70.00  0.32815  0.98088  -0.29117
    80.00  0.16812  1.05101  -0.31342
    90.00  0.00003  1.06674  -0.32943
   100.00  -0.11763  1.05101  -0.34267
   110.00  -0.22992  0.98088  -0.34516
   120.00  -0.32472  0.86604  -0.33884
   130.00  -0.39599  0.72135  -0.32801
   140.00  -0.44239  0.56516  -0.31907
   150.00  -0.47668  0.41730  -0.32438
   160.00  -0.53047  0.29614  -0.37656
   170.00  -0.26488  0.21687  -0.33622
   180.00  0.00003  0.18924  -0.00003
EOT
