AeroDyn airfoil file.  Compatible with AeroDyn v13.0.
Interpolated thickness: 0.995

  1        Number of airfoil tables in this file
  9990     Reynolds number in millions.  For efficiency, make very large if only one table.
  0        Control setting
  10.6264  Stall angle (deg)
  -0.40704 Zero lift angle of attack (deg)
  0.390617 Cn slope for zero lift (dimensionless)
  0.0752208 Cn at stall value for positive angle of attack
  -0.8     Cn at stall value for negative angle of attack
  -2.12    Angle of attack for minimum CD (deg)
  0.347766 Minimum CD value
  -180.00  0.00010  0.34843  -0.00010
  -170.00  0.00269  0.34870  0.00253
  -160.00  0.00529  0.34947  -0.00104
  -150.00  0.00476  0.35066  -0.00051
  -140.00  0.00443  0.35211  -0.00015
  -130.00  0.00397  0.35363  0.00021
  -120.00  0.00328  0.35505  0.00056
  -110.00  0.00235  0.35617  0.00089
  -100.00  0.00125  0.35686  0.00116
   -90.00  0.00010  0.35701  0.00134
   -80.00  -0.00105  0.35686  0.00147
   -70.00  -0.00215  0.35617  0.00149
   -60.00  -0.00308  0.35505  0.00143
   -50.00  -0.00378  0.35363  0.00132
   -40.00  -0.00423  0.35211  0.00123
   -30.00  -0.00457  0.35066  0.00129
   -20.00  -0.00508  0.34947  0.00179
   -10.00  -0.00202  0.34839  0.00074
    -4.17  -0.00037  0.34777  -0.00098
    -3.17  0.00038  0.34777  -0.00100
    -2.12  0.00115  0.34777  -0.00101
    -1.08  0.00193  0.34777  -0.00102
    -0.05  0.00271  0.34777  -0.00103
    -0.00  0.00271  0.34777  -0.00103
     1.14  0.00363  0.34777  -0.00104
     2.29  0.00449  0.34777  -0.00104
     3.43  0.00536  0.34777  -0.00105
     4.57  0.00620  0.34777  -0.00105
     5.72  0.00701  0.34778  -0.00104
     6.86  0.00778  0.34778  -0.00103
     8.00  0.00842  0.34778  -0.00099
    10.63  0.00870  0.34787  -0.00079
    13.25  0.00763  0.34845  -0.00074
    15.88  0.00737  0.34881  -0.00079
    18.50  0.00754  0.34917  -0.00088
    21.13  0.00750  0.34962  -0.00102
    23.75  0.00727  0.34993  -0.00120
    26.38  0.00705  0.35024  -0.00138
    29.00  0.00683  0.35055  -0.00156
    31.63  0.00668  0.35091  -0.00169
    34.25  0.00655  0.35129  -0.00180
    36.88  0.00643  0.35166  -0.00191
    39.50  0.00630  0.35204  -0.00202
    42.13  0.00614  0.35244  -0.00211
    44.75  0.00597  0.35284  -0.00220
    47.38  0.00580  0.35323  -0.00229
    50.00  0.00563  0.35363  -0.00238
    60.00  0.00464  0.35505  -0.00268
    70.00  0.00331  0.35617  -0.00295
    80.00  0.00174  0.35686  -0.00317
    90.00  0.00010  0.35701  -0.00332
   100.00  -0.00105  0.35686  -0.00345
   110.00  -0.00215  0.35617  -0.00348
   120.00  -0.00308  0.35505  -0.00341
   130.00  -0.00378  0.35363  -0.00331
   140.00  -0.00423  0.35211  -0.00322
   150.00  -0.00457  0.35066  -0.00327
   160.00  -0.00509  0.34947  -0.00378
   170.00  -0.00249  0.34870  -0.00339
   180.00  0.00010  0.34843  -0.00010
EOT
