AeroDyn airfoil file.  Compatible with AeroDyn v13.0.
Interpolated thickness: 0.389

  1        Number of airfoil tables in this file
  9990     Reynolds number in millions.  For efficiency, make very large if only one table.
  0        Control setting
  10.7908  Stall angle (deg)
  -3.51086 Zero lift angle of attack (deg)
  5.2855   Cn slope for zero lift (dimensionless)
  1.31932  Cn at stall value for positive angle of attack
  -0.8     Cn at stall value for negative angle of attack
  -2.12    Angle of attack for minimum CD (deg)
  0.0770599 Minimum CD value
  -180.00  0.00002  0.15778  -0.00002
  -170.00  0.31677  0.19082  0.32156
  -160.00  0.63433  0.28560  -0.11514
  -150.00  0.57002  0.43048  -0.05067
  -140.00  0.52902  0.60726  -0.00573
  -130.00  0.47354  0.79402  0.03777
  -120.00  0.38833  0.96703  0.08094
  -110.00  0.27497  1.10434  0.12097
  -100.00  0.14071  1.18820  0.15378
   -90.00  0.00002  1.20701  0.17532
   -80.00  -0.14067  1.18820  0.19124
   -70.00  -0.27493  1.10434  0.19413
   -60.00  -0.38829  0.96703  0.18666
   -50.00  -0.47351  0.79402  0.17363
   -40.00  -0.52898  0.60726  0.16302
   -30.00  -0.56998  0.43048  0.16937
   -20.00  -0.63269  0.28544  0.23112
   -10.00  -0.25885  0.15384  0.10216
    -4.17  -0.05786  0.07722  -0.10823
    -3.17  0.03379  0.07714  -0.10984
    -2.12  0.12865  0.07706  -0.11113
    -1.08  0.22432  0.07706  -0.11257
    -0.05  0.31919  0.07714  -0.11338
    -0.04  0.31941  0.07714  -0.11338
     1.17  0.43147  0.07732  -0.11441
     2.34  0.53703  0.07746  -0.11529
     3.50  0.64292  0.07773  -0.11590
     4.67  0.74548  0.07796  -0.11574
     5.84  0.84477  0.07826  -0.11502
     7.01  0.93891  0.07876  -0.11330
     8.18  1.01621  0.07931  -0.10855
    10.79  1.05134  0.08950  -0.08437
    13.40  0.92017  0.16065  -0.07793
    16.02  0.88855  0.20471  -0.08476
    18.63  0.90883  0.24858  -0.09540
    21.25  0.90379  0.30366  -0.11272
    23.86  0.87680  0.34162  -0.13472
    26.47  0.84980  0.37958  -0.15672
    29.09  0.82281  0.41754  -0.17872
    31.70  0.80365  0.46090  -0.19490
    34.32  0.78854  0.50707  -0.20809
    36.93  0.77342  0.55323  -0.22127
    39.54  0.75831  0.59940  -0.23445
    42.16  0.73849  0.64772  -0.24576
    44.77  0.71771  0.69649  -0.25667
    47.39  0.69692  0.74525  -0.26759
    50.00  0.67614  0.79402  -0.27851
    60.00  0.55474  0.96703  -0.31573
    70.00  0.39235  1.10434  -0.34813
    80.00  0.20101  1.18820  -0.37474
    90.00  0.00002  1.20701  -0.39387
   100.00  -0.14067  1.18820  -0.40971
   110.00  -0.27493  1.10434  -0.41269
   120.00  -0.38829  0.96703  -0.40513
   130.00  -0.47351  0.79402  -0.39219
   140.00  -0.52898  0.60726  -0.38149
   150.00  -0.56998  0.43048  -0.38784
   160.00  -0.63429  0.28560  -0.45023
   170.00  -0.31674  0.19082  -0.40199
   180.00  0.00002  0.15778  -0.00002
EOT
