AeroDyn airfoil file.  Compatible with AeroDyn v13.0.
Interpolated thickness: 0.487

  1        Number of airfoil tables in this file
  9990     Reynolds number in millions.  For efficiency, make very large if only one table.
  0        Control setting
  10.7642  Stall angle (deg)
  -3.44624 Zero lift angle of attack (deg)
  4.51592  Cn slope for zero lift (dimensionless)
  1.12003  Cn at stall value for positive angle of attack
  -0.8     Cn at stall value for negative angle of attack
  -2.12    Angle of attack for minimum CD (deg)
  0.120837 Minimum CD value
  -180.00  0.00003  0.18861  -0.00003
  -170.00  0.26598  0.21635  0.26997
  -160.00  0.53261  0.29593  -0.09669
  -150.00  0.47861  0.41757  -0.04256
  -140.00  0.44418  0.56600  -0.00483
  -130.00  0.39761  0.72280  0.03169
  -120.00  0.32606  0.86806  0.06794
  -110.00  0.23088  0.98335  0.10155
  -100.00  0.11816  1.05376  0.12910
   -90.00  0.00003  1.06955  0.14719
   -80.00  -0.11809  1.05376  0.16055
   -70.00  -0.23082  0.98335  0.16298
   -60.00  -0.32599  0.86806  0.15670
   -50.00  -0.39754  0.72280  0.14577
   -40.00  -0.44412  0.56600  0.13686
   -30.00  -0.47854  0.41757  0.14219
   -20.00  -0.53119  0.29580  0.19403
   -10.00  -0.21732  0.18530  0.08576
    -4.17  -0.04857  0.12097  -0.09089
    -3.17  0.02838  0.12090  -0.09224
    -2.12  0.10803  0.12084  -0.09332
    -1.08  0.18836  0.12084  -0.09453
    -0.05  0.26801  0.12090  -0.09521
    -0.03  0.26819  0.12091  -0.09521
     1.16  0.36228  0.12105  -0.09608
     2.33  0.45091  0.12117  -0.09682
     3.49  0.53982  0.12140  -0.09732
     4.66  0.62593  0.12159  -0.09720
     5.82  0.70929  0.12184  -0.09659
     6.98  0.78833  0.12227  -0.09515
     8.15  0.85323  0.12273  -0.09116
    10.76  0.88273  0.13128  -0.07085
    13.38  0.77260  0.19102  -0.06544
    16.00  0.74605  0.22801  -0.07118
    18.61  0.76308  0.26485  -0.08011
    21.23  0.75884  0.31109  -0.09465
    23.84  0.73618  0.34296  -0.11312
    26.46  0.71352  0.37483  -0.13160
    29.07  0.69086  0.40670  -0.15007
    31.69  0.67477  0.44312  -0.16366
    34.31  0.66208  0.48188  -0.17473
    36.92  0.64939  0.52064  -0.18580
    39.54  0.63670  0.55939  -0.19687
    42.15  0.62006  0.59997  -0.20636
    44.77  0.60261  0.64091  -0.21552
    47.38  0.58516  0.68186  -0.22469
    50.00  0.56771  0.72280  -0.23385
    60.00  0.46578  0.86806  -0.26510
    70.00  0.32943  0.98335  -0.29231
    80.00  0.16878  1.05376  -0.31465
    90.00  0.00003  1.06955  -0.33072
   100.00  -0.11809  1.05376  -0.34401
   110.00  -0.23082  0.98335  -0.34651
   120.00  -0.32599  0.86806  -0.34017
   130.00  -0.39754  0.72280  -0.32930
   140.00  -0.44412  0.56600  -0.32032
   150.00  -0.47854  0.41757  -0.32565
   160.00  -0.53254  0.29593  -0.37803
   170.00  -0.26592  0.21635  -0.33753
   180.00  0.00003  0.18861  -0.00003
EOT
