AeroDyn airfoil file.  Compatible with AeroDyn v13.0.
Interpolated thickness: 0.39

  1        Number of airfoil tables in this file
  9990     Reynolds number in millions.  For efficiency, make very large if only one table.
  0        Control setting
  10.7905  Stall angle (deg)
  -3.51027 Zero lift angle of attack (deg)
  5.27769  Cn slope for zero lift (dimensionless)
  1.31729  Cn at stall value for positive angle of attack
  -0.8     Cn at stall value for negative angle of attack
  -2.12    Angle of attack for minimum CD (deg)
  0.0775066 Minimum CD value
  -180.00  0.00002  0.15809  -0.00002
  -170.00  0.31626  0.19108  0.32103
  -160.00  0.63330  0.28571  -0.11496
  -150.00  0.56909  0.43034  -0.05059
  -140.00  0.52815  0.60684  -0.00572
  -130.00  0.47277  0.79329  0.03770
  -120.00  0.38769  0.96602  0.08081
  -110.00  0.27452  1.10311  0.12078
  -100.00  0.14048  1.18682  0.15352
   -90.00  0.00002  1.20561  0.17503
   -80.00  -0.14044  1.18682  0.19093
   -70.00  -0.27448  1.10311  0.19382
   -60.00  -0.38765  0.96602  0.18635
   -50.00  -0.47273  0.79329  0.17335
   -40.00  -0.52811  0.60684  0.16275
   -30.00  -0.56905  0.43034  0.16909
   -20.00  -0.63165  0.28555  0.23074
   -10.00  -0.25843  0.15416  0.10199
    -4.17  -0.05777  0.07767  -0.10805
    -3.17  0.03373  0.07759  -0.10966
    -2.12  0.12844  0.07751  -0.11094
    -1.08  0.22395  0.07751  -0.11239
    -0.05  0.31866  0.07759  -0.11319
    -0.04  0.31888  0.07759  -0.11319
     1.17  0.43077  0.07776  -0.11422
     2.34  0.53615  0.07790  -0.11510
     3.50  0.64187  0.07818  -0.11571
     4.67  0.74426  0.07840  -0.11556
     5.84  0.84339  0.07870  -0.11484
     7.01  0.93737  0.07920  -0.11312
     8.18  1.01455  0.07975  -0.10838
    10.79  1.04962  0.08992  -0.08423
    13.40  0.91866  0.16096  -0.07780
    16.02  0.88710  0.20494  -0.08463
    18.63  0.90734  0.24875  -0.09524
    21.25  0.90231  0.30374  -0.11253
    23.86  0.87536  0.34163  -0.13450
    26.47  0.84841  0.37953  -0.15646
    29.09  0.82147  0.41743  -0.17842
    31.70  0.80234  0.46072  -0.19459
    34.32  0.78725  0.50681  -0.20775
    36.93  0.77216  0.55290  -0.22091
    39.54  0.75707  0.59899  -0.23407
    42.16  0.73728  0.64723  -0.24536
    44.77  0.71653  0.69592  -0.25625
    47.39  0.69578  0.74461  -0.26715
    50.00  0.67503  0.79329  -0.27805
    60.00  0.55384  0.96602  -0.31521
    70.00  0.39170  1.10311  -0.34756
    80.00  0.20068  1.18682  -0.37413
    90.00  0.00002  1.20561  -0.39323
   100.00  -0.14044  1.18682  -0.40904
   110.00  -0.27448  1.10311  -0.41201
   120.00  -0.38765  0.96602  -0.40447
   130.00  -0.47273  0.79329  -0.39154
   140.00  -0.52811  0.60684  -0.38087
   150.00  -0.56905  0.43034  -0.38721
   160.00  -0.63326  0.28571  -0.44949
   170.00  -0.31622  0.19108  -0.40134
   180.00  0.00002  0.15809  -0.00002
EOT
