AeroDyn airfoil file.  Compatible with AeroDyn v13.0.
Interpolated thickness: 0.717

  1        Number of airfoil tables in this file
  9990     Reynolds number in millions.  For efficiency, make very large if only one table.
  0        Control setting
  10.7018  Stall angle (deg)
  -3.19897 Zero lift angle of attack (deg)
  2.67709  Cn slope for zero lift (dimensionless)
  0.649499 Cn at stall value for positive angle of attack
  -0.8     Cn at stall value for negative angle of attack
  -2.12    Angle of attack for minimum CD (deg)
  0.223581 Minimum CD value
  -180.00  0.00006  0.26097  -0.00006
  -170.00  0.14678  0.27627  0.14888
  -160.00  0.29386  0.32017  -0.05339
  -150.00  0.26407  0.38727  -0.02352
  -140.00  0.24508  0.46916  -0.00271
  -130.00  0.21939  0.55566  0.01744
  -120.00  0.17992  0.63579  0.03743
  -110.00  0.12741  0.69939  0.05598
  -100.00  0.06523  0.73823  0.07117
   -90.00  0.00006  0.74694  0.08115
   -80.00  -0.06510  0.73823  0.08852
   -70.00  -0.12729  0.69939  0.08986
   -60.00  -0.17979  0.63579  0.08640
   -50.00  -0.21926  0.55566  0.08037
   -40.00  -0.24496  0.46916  0.07545
   -30.00  -0.26395  0.38727  0.07840
   -20.00  -0.29299  0.32010  0.10699
   -10.00  -0.11984  0.25914  0.04727
    -4.17  -0.02675  0.22366  -0.05018
    -3.17  0.01570  0.22362  -0.05093
    -2.12  0.05964  0.22358  -0.05152
    -1.08  0.10395  0.22358  -0.05219
    -0.05  0.14789  0.22362  -0.05257
    -0.02  0.14800  0.22362  -0.05257
     1.15  0.19990  0.22370  -0.05305
     2.31  0.24879  0.22377  -0.05345
     3.46  0.29784  0.22389  -0.05373
     4.62  0.34534  0.22400  -0.05366
     5.77  0.39133  0.22414  -0.05333
     6.93  0.43493  0.22437  -0.05253
     8.08  0.47074  0.22462  -0.05033
    10.70  0.48701  0.22934  -0.03913
    13.32  0.42625  0.26230  -0.03615
    15.94  0.41161  0.28270  -0.03931
    18.56  0.42100  0.30303  -0.04424
    21.18  0.41867  0.32854  -0.05226
    23.80  0.40616  0.34612  -0.06245
    26.42  0.39366  0.36370  -0.07264
    29.04  0.38116  0.38128  -0.08283
    31.66  0.37228  0.40137  -0.09033
    34.28  0.36528  0.42275  -0.09643
    36.90  0.35828  0.44413  -0.10254
    39.52  0.35128  0.46551  -0.10865
    42.14  0.34210  0.48790  -0.11388
    44.76  0.33248  0.51048  -0.11894
    47.38  0.32285  0.53307  -0.12399
    50.00  0.31322  0.55566  -0.12905
    60.00  0.25700  0.63579  -0.14629
    70.00  0.18178  0.69939  -0.16130
    80.00  0.09315  0.73823  -0.17362
    90.00  0.00006  0.74694  -0.18249
   100.00  -0.06510  0.73823  -0.18982
   110.00  -0.12729  0.69939  -0.19120
   120.00  -0.17979  0.63579  -0.18770
   130.00  -0.21926  0.55566  -0.18170
   140.00  -0.24496  0.46916  -0.17675
   150.00  -0.26395  0.38727  -0.17969
   160.00  -0.29374  0.32017  -0.20859
   170.00  -0.14665  0.27627  -0.18625
   180.00  0.00006  0.26097  -0.00006
EOT
