AeroDyn airfoil file.  Compatible with AeroDyn v13.0.
Interpolated thickness: 0.662

  1        Number of airfoil tables in this file
  9990     Reynolds number in millions.  For efficiency, make very large if only one table.
  0        Control setting
  10.7167  Stall angle (deg)
  -3.27908 Zero lift angle of attack (deg)
  3.12103  Cn slope for zero lift (dimensionless)
  0.762382 Cn at stall value for positive angle of attack
  -0.8     Cn at stall value for negative angle of attack
  -2.12    Angle of attack for minimum CD (deg)
  0.199012 Minimum CD value
  -180.00  0.00006  0.24366  -0.00006
  -170.00  0.17528  0.26194  0.17784
  -160.00  0.35095  0.31438  -0.06374
  -150.00  0.31537  0.39452  -0.02807
  -140.00  0.29269  0.49232  -0.00321
  -130.00  0.26201  0.59563  0.02085
  -120.00  0.21486  0.69134  0.04473
  -110.00  0.15216  0.76730  0.06688
  -100.00  0.07788  0.81368  0.08502
   -90.00  0.00006  0.82409  0.09694
   -80.00  -0.07777  0.81368  0.10575
   -70.00  -0.15204  0.76730  0.10735
   -60.00  -0.21475  0.69134  0.10321
   -50.00  -0.26189  0.59563  0.09601
   -40.00  -0.29258  0.49232  0.09014
   -30.00  -0.31526  0.39452  0.09365
   -20.00  -0.34995  0.31429  0.12781
   -10.00  -0.14315  0.24148  0.05647
    -4.17  -0.03197  0.19910  -0.05992
    -3.17  0.01873  0.19906  -0.06081
    -2.12  0.07121  0.19901  -0.06152
    -1.08  0.12414  0.19901  -0.06232
    -0.05  0.17662  0.19906  -0.06276
    -0.02  0.17674  0.19906  -0.06276
     1.16  0.23873  0.19915  -0.06334
     2.31  0.29712  0.19923  -0.06382
     3.47  0.35570  0.19938  -0.06416
     4.63  0.41244  0.19951  -0.06407
     5.78  0.46737  0.19967  -0.06368
     6.94  0.51944  0.19995  -0.06272
     8.10  0.56220  0.20026  -0.06010
    10.72  0.58164  0.20589  -0.04672
    13.34  0.50907  0.24526  -0.04315
    15.95  0.49158  0.26962  -0.04694
    18.57  0.50280  0.29390  -0.05282
    21.19  0.50001  0.32437  -0.06240
    23.81  0.48508  0.34536  -0.07457
    26.43  0.47015  0.36636  -0.08674
    29.05  0.45522  0.38736  -0.09891
    31.67  0.44462  0.41135  -0.10786
    34.29  0.43626  0.43689  -0.11516
    36.91  0.42789  0.46243  -0.12245
    39.52  0.41953  0.48796  -0.12974
    42.14  0.40857  0.51470  -0.13600
    44.76  0.39707  0.54167  -0.14203
    47.38  0.38558  0.56865  -0.14807
    50.00  0.37408  0.59563  -0.15411
    60.00  0.30692  0.69134  -0.17470
    70.00  0.21709  0.76730  -0.19263
    80.00  0.11124  0.81368  -0.20735
    90.00  0.00006  0.82409  -0.21793
   100.00  -0.07777  0.81368  -0.22669
   110.00  -0.15204  0.76730  -0.22834
   120.00  -0.21475  0.69134  -0.22416
   130.00  -0.26189  0.59563  -0.21700
   140.00  -0.29258  0.49232  -0.21108
   150.00  -0.31526  0.39452  -0.21460
   160.00  -0.35084  0.31438  -0.24911
   170.00  -0.17517  0.26194  -0.22242
   180.00  0.00006  0.24366  -0.00006
EOT
