AeroDyn airfoil file.  Compatible with AeroDyn v13.0.
Interpolated thickness: 0.533

  1        Number of airfoil tables in this file
  9990     Reynolds number in millions.  For efficiency, make very large if only one table.
  0        Control setting
  10.7517  Stall angle (deg)
  -3.41055 Zero lift angle of attack (deg)
  4.15184  Cn slope for zero lift (dimensionless)
  1.02625  Cn at stall value for positive angle of attack
  -0.8     Cn at stall value for negative angle of attack
  -2.12    Angle of attack for minimum CD (deg)
  0.141386 Minimum CD value
  -180.00  0.00004  0.20308  -0.00004
  -170.00  0.24214  0.22833  0.24575
  -160.00  0.48486  0.30078  -0.08803
  -150.00  0.43570  0.41151  -0.03875
  -140.00  0.40436  0.54663  -0.00440
  -130.00  0.36196  0.68937  0.02884
  -120.00  0.29683  0.82161  0.06184
  -110.00  0.21019  0.92656  0.09244
  -100.00  0.10757  0.99065  0.11751
   -90.00  0.00004  1.00503  0.13398
   -80.00  -0.10749  0.99065  0.14614
   -70.00  -0.21011  0.92656  0.14836
   -60.00  -0.29675  0.82161  0.14264
   -50.00  -0.36189  0.68937  0.13269
   -40.00  -0.40429  0.54663  0.12458
   -30.00  -0.43562  0.41151  0.12943
   -20.00  -0.48355  0.30066  0.17662
   -10.00  -0.19782  0.20007  0.07806
    -4.17  -0.04420  0.14151  -0.08275
    -3.17  0.02585  0.14145  -0.08398
    -2.12  0.09835  0.14139  -0.08496
    -1.08  0.17148  0.14139  -0.08606
    -0.05  0.24398  0.14145  -0.08668
    -0.03  0.24415  0.14145  -0.08668
     1.16  0.32981  0.14158  -0.08747
     2.32  0.41049  0.14169  -0.08814
     3.49  0.49142  0.14190  -0.08861
     4.65  0.56981  0.14207  -0.08849
     5.81  0.64570  0.14230  -0.08794
     6.97  0.71765  0.14269  -0.08662
     8.14  0.77673  0.14311  -0.08299
    10.75  0.80358  0.15089  -0.06451
    13.37  0.70333  0.20528  -0.05958
    15.98  0.67916  0.23895  -0.06481
    18.60  0.69466  0.27249  -0.07294
    21.22  0.69081  0.31458  -0.08617
    23.83  0.67018  0.34359  -0.10299
    26.45  0.64955  0.37261  -0.11980
    29.07  0.62892  0.40162  -0.13662
    31.68  0.61427  0.43477  -0.14899
    34.30  0.60272  0.47005  -0.15907
    36.92  0.59117  0.50533  -0.16915
    39.53  0.57961  0.54062  -0.17922
    42.15  0.56447  0.57755  -0.18786
    44.77  0.54858  0.61483  -0.19620
    47.38  0.53270  0.65210  -0.20455
    50.00  0.51681  0.68937  -0.21289
    60.00  0.42403  0.82161  -0.24134
    70.00  0.29990  0.92656  -0.26611
    80.00  0.15366  0.99065  -0.28644
    90.00  0.00004  1.00503  -0.30107
   100.00  -0.10749  0.99065  -0.31317
   110.00  -0.21011  0.92656  -0.31545
   120.00  -0.29675  0.82161  -0.30967
   130.00  -0.36189  0.68937  -0.29978
   140.00  -0.40429  0.54663  -0.29161
   150.00  -0.43562  0.41151  -0.29646
   160.00  -0.48478  0.30078  -0.34414
   170.00  -0.24206  0.22833  -0.30728
   180.00  0.00004  0.20308  -0.00004
EOT
