AeroDyn airfoil file.  Compatible with AeroDyn v13.0.
Interpolated thickness: 0.805

  1        Number of airfoil tables in this file
  9990     Reynolds number in millions.  For efficiency, make very large if only one table.
  0        Control setting
  10.6779  Stall angle (deg)
  -3.08623 Zero lift angle of attack (deg)
  1.93408  Cn slope for zero lift (dimensionless)
  0.464624 Cn at stall value for positive angle of attack
  -0.8     Cn at stall value for negative angle of attack
  -2.12    Angle of attack for minimum CD (deg)
  0.262891 Minimum CD value
  -180.00  0.00007  0.28865  -0.00007
  -170.00  0.10117  0.29920  0.10256
  -160.00  0.20252  0.32945  -0.03682
  -150.00  0.18199  0.37568  -0.01624
  -140.00  0.16890  0.43211  -0.00190
  -130.00  0.15120  0.49171  0.01198
  -120.00  0.12400  0.54692  0.02576
  -110.00  0.08782  0.59075  0.03854
  -100.00  0.04498  0.61751  0.04901
   -90.00  0.00007  0.62351  0.05589
   -80.00  -0.04483  0.61751  0.06097
   -70.00  -0.08768  0.59075  0.06189
   -60.00  -0.12385  0.54692  0.05950
   -50.00  -0.15105  0.49171  0.05535
   -40.00  -0.16875  0.43211  0.05196
   -30.00  -0.18184  0.37568  0.05399
   -20.00  -0.20185  0.32940  0.07369
   -10.00  -0.08254  0.28739  0.03254
    -4.17  -0.01840  0.26294  -0.03461
    -3.17  0.01085  0.26292  -0.03512
    -2.12  0.04113  0.26289  -0.03553
    -1.08  0.07166  0.26289  -0.03600
    -0.05  0.10194  0.26292  -0.03625
    -0.01  0.10201  0.26292  -0.03625
     1.15  0.13777  0.26297  -0.03658
     2.30  0.17146  0.26302  -0.03686
     3.45  0.20525  0.26311  -0.03706
     4.60  0.23799  0.26318  -0.03701
     5.75  0.26968  0.26327  -0.03678
     6.91  0.29972  0.26343  -0.03623
     8.06  0.32439  0.26361  -0.03471
    10.68  0.33560  0.26686  -0.02699
    13.30  0.29374  0.28957  -0.02494
    15.92  0.28365  0.30363  -0.02712
    18.54  0.29012  0.31763  -0.03051
    21.16  0.28851  0.33521  -0.03604
    23.79  0.27990  0.34733  -0.04306
    26.41  0.27128  0.35944  -0.05008
    29.03  0.26267  0.37155  -0.05710
    31.65  0.25655  0.38540  -0.06227
    34.27  0.25173  0.40013  -0.06648
    36.89  0.24690  0.41486  -0.07069
    39.51  0.24208  0.42959  -0.07489
    42.14  0.23576  0.44502  -0.07850
    44.76  0.22912  0.46058  -0.08199
    47.38  0.22249  0.47614  -0.08547
    50.00  0.21586  0.49171  -0.08895
    60.00  0.17711  0.54692  -0.10083
    70.00  0.12528  0.59075  -0.11117
    80.00  0.06422  0.61751  -0.11967
    90.00  0.00007  0.62351  -0.12577
   100.00  -0.04483  0.61751  -0.13083
   110.00  -0.08768  0.59075  -0.13178
   120.00  -0.12385  0.54692  -0.12936
   130.00  -0.15105  0.49171  -0.12523
   140.00  -0.16875  0.43211  -0.12182
   150.00  -0.18184  0.37568  -0.12385
   160.00  -0.20237  0.32945  -0.14376
   170.00  -0.10102  0.29920  -0.12836
   180.00  0.00007  0.28865  -0.00007
EOT
