AeroDyn airfoil file.  Compatible with AeroDyn v13.0.
Interpolated thickness: 0.189

  1        Number of airfoil tables in this file
  9990     Reynolds number in millions.  For efficiency, make very large if only one table.
  0        Control setting
  14.1397  Stall angle (deg)
  -4.982   Zero lift angle of attack (deg)
  6.21911  Cn slope for zero lift (dimensionless)
  2.07554  Cn at stall value for positive angle of attack
  -0.8     Cn at stall value for negative angle of attack
  -4.09    Angle of attack for minimum CD (deg)
  0.00771069 Minimum CD value
  -180.00  0.00000  0.16926  0.00000
  -170.00  0.39910  0.20941  0.40000
  -160.00  0.79920  0.32469  -0.13912
  -150.00  0.71046  0.50059  -0.06220
  -140.00  0.65946  0.71466  -0.00695
  -130.00  0.58973  0.93975  0.04649
  -120.00  0.48373  1.14664  0.09881
  -110.00  0.34200  1.30826  0.14613
  -100.00  0.17500  1.40273  0.18365
   -90.00  0.00000  1.41600  0.20644
   -80.00  -0.17500  1.40273  0.22719
   -70.00  -0.34200  1.30826  0.23188
   -60.00  -0.48373  1.14664  0.22346
   -50.00  -0.58973  0.93975  0.20769
   -40.00  -0.65946  0.71466  0.19406
   -30.00  -0.71046  0.50059  0.19999
   -20.00  -0.79793  0.32442  0.27446
   -10.00  -0.27974  0.10505  0.07217
    -6.04  -0.09449  0.01827  -0.11998
    -5.04  0.00749  0.01172  -0.13981
    -4.09  0.09732  0.00771  -0.15220
    -3.02  0.21415  0.00775  -0.15364
    -2.02  0.32193  0.00780  -0.15449
    -1.03  0.42918  0.00788  -0.15524
    -0.01  0.53842  0.00805  -0.15623
     0.86  0.63512  0.00826  -0.15624
     1.72  0.72877  0.00853  -0.15668
     2.59  0.82135  0.00888  -0.15740
     3.45  0.91154  0.00921  -0.15674
     4.31  0.99977  0.00961  -0.15579
     5.17  1.08113  0.01002  -0.15372
     7.42  1.22519  0.01504  -0.14011
     9.66  1.30402  0.03294  -0.12719
    11.90  1.39474  0.05434  -0.12025
    14.14  1.42234  0.08974  -0.11447
    16.38  1.28532  0.20479  -0.12804
    18.62  1.21675  0.27611  -0.13829
    20.86  1.13514  0.33999  -0.16857
    23.10  1.10568  0.37944  -0.19080
    25.35  1.07622  0.41890  -0.21304
    27.59  1.04677  0.45835  -0.23527
    29.83  1.01915  0.49908  -0.25613
    32.07  0.99989  0.54516  -0.27160
    34.31  0.98359  0.59311  -0.28523
    36.55  0.96728  0.64106  -0.29885
    38.79  0.95098  0.68900  -0.31247
    41.03  0.93182  0.73812  -0.32502
    43.28  0.90930  0.78853  -0.33634
    45.52  0.88678  0.83893  -0.34766
    47.76  0.86425  0.88934  -0.35898
    50.00  0.84173  0.93975  -0.37030
    60.00  0.69073  1.14664  -0.41456
    70.00  0.48873  1.30826  -0.45216
    80.00  0.25000  1.40273  -0.48176
    90.00  0.00000  1.41600  -0.50156
   100.00  -0.17500  1.40273  -0.52228
   110.00  -0.34200  1.30826  -0.52700
   120.00  -0.48373  1.14664  -0.51854
   130.00  -0.58973  0.93975  -0.50281
   140.00  -0.65946  0.71466  -0.48914
   150.00  -0.71046  0.50059  -0.49508
   160.00  -0.79920  0.32469  -0.56998
   170.00  -0.39910  0.20941  -0.50000
   180.00  0.00000  0.16926  0.00000
EOT
