AeroDyn airfoil file.  Compatible with AeroDyn v13.0.
Interpolated thickness: 0.603

  1        Number of airfoil tables in this file
  9990     Reynolds number in millions.  For efficiency, make very large if only one table.
  0        Control setting
  10.7327  Stall angle (deg)
  -3.34647 Zero lift angle of attack (deg)
  3.59429  Cn slope for zero lift (dimensionless)
  0.88322  Cn at stall value for positive angle of attack
  -0.8     Cn at stall value for negative angle of attack
  -2.12    Angle of attack for minimum CD (deg)
  0.172656 Minimum CD value
  -180.00  0.00005  0.22510  -0.00005
  -170.00  0.20586  0.24657  0.20890
  -160.00  0.41220  0.30816  -0.07485
  -150.00  0.37041  0.40229  -0.03296
  -140.00  0.34377  0.51716  -0.00376
  -130.00  0.30772  0.63850  0.02450
  -120.00  0.25235  0.75092  0.05255
  -110.00  0.17870  0.84014  0.07857
  -100.00  0.09146  0.89462  0.09988
   -90.00  0.00005  0.90684  0.11388
   -80.00  -0.09137  0.89462  0.12422
   -70.00  -0.17860  0.84014  0.12610
   -60.00  -0.25226  0.75092  0.12125
   -50.00  -0.30763  0.63850  0.11278
   -40.00  -0.34367  0.51716  0.10589
   -30.00  -0.37031  0.40229  0.11002
   -20.00  -0.41106  0.30805  0.15013
   -10.00  -0.16815  0.22254  0.06635
    -4.17  -0.03756  0.17276  -0.07036
    -3.17  0.02199  0.17271  -0.07140
    -2.12  0.08363  0.17266  -0.07224
    -1.08  0.14579  0.17266  -0.07318
    -0.05  0.20743  0.17271  -0.07370
    -0.02  0.20757  0.17271  -0.07370
     1.16  0.28039  0.17282  -0.07437
     2.32  0.34897  0.17291  -0.07495
     3.48  0.41777  0.17309  -0.07534
     4.64  0.48441  0.17324  -0.07524
     5.80  0.54893  0.17343  -0.07477
     6.96  0.61010  0.17376  -0.07365
     8.11  0.66032  0.17412  -0.07057
    10.73  0.68315  0.18074  -0.05485
    13.35  0.59792  0.22697  -0.05067
    15.97  0.57737  0.25559  -0.05511
    18.59  0.59055  0.28410  -0.06202
    21.20  0.58727  0.31989  -0.07327
    23.82  0.56974  0.34455  -0.08757
    26.44  0.55220  0.36922  -0.10186
    29.06  0.53466  0.39388  -0.11616
    31.68  0.52221  0.42206  -0.12667
    34.29  0.51239  0.45206  -0.13524
    36.91  0.50257  0.48205  -0.14381
    39.53  0.49275  0.51205  -0.15237
    42.15  0.47987  0.54344  -0.15972
    44.76  0.46637  0.57513  -0.16681
    47.38  0.45286  0.60682  -0.17390
    50.00  0.43936  0.63850  -0.18100
    60.00  0.36048  0.75092  -0.20518
    70.00  0.25496  0.84014  -0.22623
    80.00  0.13064  0.89462  -0.24352
    90.00  0.00005  0.90684  -0.25596
   100.00  -0.09137  0.89462  -0.26625
   110.00  -0.17860  0.84014  -0.26818
   120.00  -0.25226  0.75092  -0.26327
   130.00  -0.30763  0.63850  -0.25486
   140.00  -0.34367  0.51716  -0.24791
   150.00  -0.37031  0.40229  -0.25204
   160.00  -0.41210  0.30816  -0.29257
   170.00  -0.20577  0.24657  -0.26123
   180.00  0.00005  0.22510  -0.00005
EOT
