AeroDyn airfoil file.  Compatible with AeroDyn v13.0.
Interpolated thickness: 0.536

  1        Number of airfoil tables in this file
  9990     Reynolds number in millions.  For efficiency, make very large if only one table.
  0        Control setting
  10.7509  Stall angle (deg)
  -3.40807 Zero lift angle of attack (deg)
  4.12803  Cn slope for zero lift (dimensionless)
  1.02012  Cn at stall value for positive angle of attack
  -0.8     Cn at stall value for negative angle of attack
  -2.12    Angle of attack for minimum CD (deg)
  0.142726 Minimum CD value
  -180.00  0.00004  0.20402  -0.00004
  -170.00  0.24059  0.22912  0.24417
  -160.00  0.48174  0.30110  -0.08747
  -150.00  0.43290  0.41111  -0.03850
  -140.00  0.40177  0.54537  -0.00437
  -130.00  0.35964  0.68719  0.02866
  -120.00  0.29492  0.81858  0.06144
  -110.00  0.20884  0.92286  0.09185
  -100.00  0.10688  0.98653  0.11675
   -90.00  0.00004  1.00082  0.13312
   -80.00  -0.10680  0.98653  0.14521
   -70.00  -0.20876  0.92286  0.14740
   -60.00  -0.29485  0.81858  0.14173
   -50.00  -0.35956  0.68719  0.13183
   -40.00  -0.40169  0.54537  0.12378
   -30.00  -0.43282  0.41111  0.12860
   -20.00  -0.48045  0.30097  0.17549
   -10.00  -0.19655  0.20103  0.07756
    -4.17  -0.04392  0.14285  -0.08222
    -3.17  0.02568  0.14279  -0.08344
    -2.12  0.09772  0.14273  -0.08441
    -1.08  0.17038  0.14273  -0.08551
    -0.05  0.24242  0.14279  -0.08612
    -0.03  0.24259  0.14279  -0.08612
     1.16  0.32769  0.14292  -0.08691
     2.32  0.40785  0.14303  -0.08758
     3.49  0.48826  0.14324  -0.08804
     4.65  0.56615  0.14341  -0.08792
     5.81  0.64155  0.14364  -0.08737
     6.97  0.71304  0.14402  -0.08607
     8.13  0.77174  0.14444  -0.08246
    10.75  0.79842  0.15217  -0.06409
    13.37  0.69881  0.20621  -0.05920
    15.98  0.67480  0.23966  -0.06439
    18.60  0.69020  0.27298  -0.07247
    21.22  0.68637  0.31481  -0.08562
    23.83  0.66587  0.34364  -0.10233
    26.45  0.64538  0.37246  -0.11904
    29.07  0.62488  0.40129  -0.13574
    31.68  0.61033  0.43422  -0.14804
    34.30  0.59885  0.46928  -0.15805
    36.92  0.58737  0.50434  -0.16806
    39.53  0.57589  0.53939  -0.17807
    42.15  0.56084  0.57609  -0.18666
    44.77  0.54506  0.61313  -0.19495
    47.38  0.52927  0.65016  -0.20324
    50.00  0.51349  0.68719  -0.21153
    60.00  0.42130  0.81858  -0.23979
    70.00  0.29798  0.92286  -0.26440
    80.00  0.15267  0.98653  -0.28461
    90.00  0.00004  1.00082  -0.29914
   100.00  -0.10680  0.98653  -0.31116
   110.00  -0.20876  0.92286  -0.31342
   120.00  -0.29485  0.81858  -0.30768
   130.00  -0.35956  0.68719  -0.29785
   140.00  -0.40169  0.54537  -0.28973
   150.00  -0.43282  0.41111  -0.29456
   160.00  -0.48167  0.30110  -0.34193
   170.00  -0.24051  0.22912  -0.30530
   180.00  0.00004  0.20402  -0.00004
EOT
