AeroDyn airfoil file.  Compatible with AeroDyn v13.0.
Interpolated thickness: 0.801

  1        Number of airfoil tables in this file
  9990     Reynolds number in millions.  For efficiency, make very large if only one table.
  0        Control setting
  10.679   Stall angle (deg)
  -3.09782 Zero lift angle of attack (deg)
  1.96633  Cn slope for zero lift (dimensionless)
  0.472806 Cn at stall value for positive angle of attack
  -0.8     Cn at stall value for negative angle of attack
  -2.12    Angle of attack for minimum CD (deg)
  0.261105 Minimum CD value
  -180.00  0.00007  0.28739  -0.00007
  -170.00  0.10324  0.29816  0.10466
  -160.00  0.20667  0.32903  -0.03757
  -150.00  0.18572  0.37621  -0.01657
  -140.00  0.17237  0.43379  -0.00193
  -130.00  0.15430  0.49462  0.01223
  -120.00  0.12654  0.55096  0.02629
  -110.00  0.08962  0.59569  0.03933
  -100.00  0.04590  0.62300  0.05002
   -90.00  0.00007  0.62912  0.05703
   -80.00  -0.04575  0.62300  0.06222
   -70.00  -0.08948  0.59569  0.06316
   -60.00  -0.12640  0.55096  0.06073
   -50.00  -0.15415  0.49462  0.05648
   -40.00  -0.17222  0.43379  0.05303
   -30.00  -0.18557  0.37621  0.05510
   -20.00  -0.20600  0.32897  0.07521
   -10.00  -0.08424  0.28611  0.03321
    -4.17  -0.01878  0.26116  -0.03532
    -3.17  0.01107  0.26113  -0.03584
    -2.12  0.04197  0.26110  -0.03626
    -1.08  0.07313  0.26110  -0.03673
    -0.05  0.10403  0.26113  -0.03699
    -0.01  0.10410  0.26113  -0.03699
     1.15  0.14060  0.26119  -0.03733
     2.30  0.17497  0.26123  -0.03762
     3.45  0.20946  0.26132  -0.03781
     4.60  0.24287  0.26140  -0.03777
     5.76  0.27521  0.26149  -0.03753
     6.91  0.30587  0.26166  -0.03697
     8.06  0.33104  0.26184  -0.03542
    10.68  0.34248  0.26515  -0.02755
    13.30  0.29976  0.28833  -0.02545
    15.92  0.28946  0.30268  -0.02767
    18.54  0.29607  0.31697  -0.03114
    21.16  0.29443  0.33491  -0.03678
    23.79  0.28564  0.34727  -0.04394
    26.41  0.27685  0.35963  -0.05111
    29.03  0.26805  0.37200  -0.05827
    31.65  0.26181  0.38612  -0.06355
    34.27  0.25689  0.40116  -0.06784
    36.89  0.25197  0.41619  -0.07213
    39.51  0.24704  0.43123  -0.07643
    42.14  0.24059  0.44697  -0.08011
    44.76  0.23382  0.46285  -0.08367
    47.38  0.22705  0.47873  -0.08722
    50.00  0.22028  0.49462  -0.09078
    60.00  0.18074  0.55096  -0.10290
    70.00  0.12785  0.59569  -0.11345
    80.00  0.06553  0.62300  -0.12212
    90.00  0.00007  0.62912  -0.12835
   100.00  -0.04575  0.62300  -0.13351
   110.00  -0.08948  0.59569  -0.13448
   120.00  -0.12640  0.55096  -0.13202
   130.00  -0.15415  0.49462  -0.12780
   140.00  -0.17222  0.43379  -0.12432
   150.00  -0.18557  0.37621  -0.12639
   160.00  -0.20652  0.32903  -0.14671
   170.00  -0.10309  0.29816  -0.13099
   180.00  0.00007  0.28739  -0.00007
EOT
