AeroDyn airfoil file.  Compatible with AeroDyn v13.0.
Interpolated thickness: 0.96

  1        Number of airfoil tables in this file
  9990     Reynolds number in millions.  For efficiency, make very large if only one table.
  0        Control setting
  10.6359  Stall angle (deg)
  -1.8167  Zero lift angle of attack (deg)
  0.676636 Cn slope for zero lift (dimensionless)
  0.147059 Cn at stall value for positive angle of attack
  -0.8     Cn at stall value for negative angle of attack
  -2.12    Angle of attack for minimum CD (deg)
  0.332132 Minimum CD value
  -180.00  0.00009  0.33742  -0.00009
  -170.00  0.02083  0.33958  0.02096
  -160.00  0.04162  0.34578  -0.00763
  -150.00  0.03741  0.35527  -0.00341
  -140.00  0.03473  0.36684  -0.00047
  -130.00  0.03109  0.37907  0.00238
  -120.00  0.02552  0.39039  0.00521
  -110.00  0.01809  0.39938  0.00783
  -100.00  0.00931  0.40487  0.00997
   -90.00  0.00009  0.40611  0.01138
   -80.00  -0.00912  0.40487  0.01243
   -70.00  -0.01791  0.39938  0.01262
   -60.00  -0.02533  0.39039  0.01213
   -50.00  -0.03091  0.37907  0.01127
   -40.00  -0.03454  0.36684  0.01058
   -30.00  -0.03722  0.35527  0.01099
   -20.00  -0.04133  0.34577  0.01504
   -10.00  -0.01685  0.33716  0.00659
    -4.17  -0.00369  0.33214  -0.00718
    -3.17  0.00231  0.33214  -0.00728
    -2.12  0.00852  0.33213  -0.00737
    -1.08  0.01478  0.33213  -0.00746
    -0.05  0.02099  0.33214  -0.00752
    -0.00  0.02100  0.33214  -0.00752
     1.14  0.02834  0.33215  -0.00758
     2.29  0.03525  0.33216  -0.00764
     3.43  0.04218  0.33218  -0.00768
     4.58  0.04890  0.33219  -0.00767
     5.72  0.05540  0.33221  -0.00762
     6.87  0.06156  0.33224  -0.00751
     8.01  0.06662  0.33228  -0.00720
    10.64  0.06892  0.33295  -0.00562
    13.26  0.06033  0.33760  -0.00519
    15.88  0.05826  0.34049  -0.00564
    18.51  0.05959  0.34336  -0.00634
    21.13  0.05926  0.34697  -0.00747
    23.76  0.05749  0.34945  -0.00891
    26.38  0.05573  0.35194  -0.01035
    29.01  0.05396  0.35442  -0.01179
    31.63  0.05271  0.35726  -0.01285
    34.25  0.05172  0.36028  -0.01372
    36.88  0.05073  0.36330  -0.01458
    39.50  0.04974  0.36633  -0.01544
    42.13  0.04844  0.36949  -0.01618
    44.75  0.04708  0.37268  -0.01690
    47.38  0.04572  0.37588  -0.01761
    50.00  0.04436  0.37907  -0.01833
    60.00  0.03641  0.39039  -0.02076
    70.00  0.02578  0.39938  -0.02288
    80.00  0.01325  0.40487  -0.02463
    90.00  0.00009  0.40611  -0.02588
   100.00  -0.00912  0.40487  -0.02692
   110.00  -0.01791  0.39938  -0.02711
   120.00  -0.02533  0.39039  -0.02662
   130.00  -0.03091  0.37907  -0.02577
   140.00  -0.03454  0.36684  -0.02507
   150.00  -0.03722  0.35527  -0.02548
   160.00  -0.04143  0.34578  -0.02957
   170.00  -0.02064  0.33958  -0.02641
   180.00  0.00009  0.33742  -0.00009
EOT
