AeroDyn airfoil file.  Compatible with AeroDyn v13.0.
Interpolated thickness: 0.548

  1        Number of airfoil tables in this file
  9990     Reynolds number in millions.  For efficiency, make very large if only one table.
  0        Control setting
  10.7477  Stall angle (deg)
  -3.39793 Zero lift angle of attack (deg)
  4.03272  Cn slope for zero lift (dimensionless)
  0.995628 Cn at stall value for positive angle of attack
  -0.8     Cn at stall value for negative angle of attack
  -2.12    Angle of attack for minimum CD (deg)
  0.148087 Minimum CD value
  -180.00  0.00004  0.20780  -0.00004
  -170.00  0.23437  0.23224  0.23785
  -160.00  0.46929  0.30236  -0.08521
  -150.00  0.42171  0.40953  -0.03751
  -140.00  0.39138  0.54032  -0.00426
  -130.00  0.35034  0.67847  0.02791
  -120.00  0.28730  0.80646  0.05985
  -110.00  0.20344  0.90804  0.08947
  -100.00  0.10412  0.97007  0.11373
   -90.00  0.00004  0.98399  0.12967
   -80.00  -0.10404  0.97007  0.14145
   -70.00  -0.20336  0.90804  0.14359
   -60.00  -0.28722  0.80646  0.13806
   -50.00  -0.35026  0.67847  0.12842
   -40.00  -0.39130  0.54032  0.12057
   -30.00  -0.42163  0.40953  0.12527
   -20.00  -0.46802  0.30224  0.17095
   -10.00  -0.19146  0.20488  0.07555
    -4.17  -0.04278  0.14821  -0.08009
    -3.17  0.02502  0.14815  -0.08128
    -2.12  0.09520  0.14809  -0.08223
    -1.08  0.16597  0.14809  -0.08330
    -0.05  0.23615  0.14815  -0.08390
    -0.03  0.23631  0.14815  -0.08390
     1.16  0.31922  0.14828  -0.08466
     2.32  0.39730  0.14838  -0.08532
     3.48  0.47564  0.14858  -0.08576
     4.65  0.55151  0.14875  -0.08565
     5.81  0.62496  0.14897  -0.08512
     6.97  0.69460  0.14935  -0.08384
     8.13  0.75179  0.14975  -0.08033
    10.75  0.77778  0.15729  -0.06244
    13.36  0.68074  0.20993  -0.05767
    15.98  0.65735  0.24252  -0.06273
    18.60  0.67235  0.27497  -0.07060
    21.21  0.66862  0.31572  -0.08341
    23.83  0.64865  0.34380  -0.09968
    26.45  0.62869  0.37188  -0.11596
    29.07  0.60872  0.39996  -0.13223
    31.68  0.59454  0.43204  -0.14421
    34.30  0.58336  0.46619  -0.15396
    36.92  0.57218  0.50035  -0.16372
    39.53  0.56100  0.53450  -0.17347
    42.15  0.54634  0.57024  -0.18183
    44.77  0.53096  0.60632  -0.18991
    47.38  0.51559  0.64240  -0.19798
    50.00  0.50021  0.67847  -0.20606
    60.00  0.41041  0.80646  -0.23359
    70.00  0.29027  0.90804  -0.25756
    80.00  0.14872  0.97007  -0.27725
    90.00  0.00004  0.98399  -0.29140
   100.00  -0.10404  0.97007  -0.30312
   110.00  -0.20336  0.90804  -0.30532
   120.00  -0.28722  0.80646  -0.29973
   130.00  -0.35026  0.67847  -0.29015
   140.00  -0.39130  0.54032  -0.28224
   150.00  -0.42163  0.40953  -0.28694
   160.00  -0.46921  0.30236  -0.33309
   170.00  -0.23429  0.23224  -0.29741
   180.00  0.00004  0.20780  -0.00004
EOT
