AeroDyn airfoil file.  Compatible with AeroDyn v13.0.
Interpolated thickness: 0.755

  1        Number of airfoil tables in this file
  9990     Reynolds number in millions.  For efficiency, make very large if only one table.
  0        Control setting
  10.6915  Stall angle (deg)
  -3.12872 Zero lift angle of attack (deg)
  2.36879  Cn slope for zero lift (dimensionless)
  0.571372 Cn at stall value for positive angle of attack
  -0.8     Cn at stall value for negative angle of attack
  -2.12    Angle of attack for minimum CD (deg)
  0.240556 Minimum CD value
  -180.00  0.00007  0.27292  -0.00007
  -170.00  0.12708  0.28617  0.12888
  -160.00  0.25442  0.32418  -0.04623
  -150.00  0.22863  0.38227  -0.02038
  -140.00  0.21219  0.45316  -0.00236
  -130.00  0.18994  0.52804  0.01508
  -120.00  0.15577  0.59742  0.03239
  -110.00  0.11032  0.65248  0.04845
  -100.00  0.05648  0.68610  0.06160
   -90.00  0.00007  0.69364  0.07024
   -80.00  -0.05635  0.68610  0.07662
   -70.00  -0.11018  0.65248  0.07778
   -60.00  -0.15564  0.59742  0.07479
   -50.00  -0.18981  0.52804  0.06956
   -40.00  -0.21205  0.45316  0.06531
   -30.00  -0.22849  0.38227  0.06786
   -20.00  -0.25364  0.32411  0.09261
   -10.00  -0.10373  0.27134  0.04091
    -4.17  -0.02314  0.24062  -0.04346
    -3.17  0.01361  0.24059  -0.04410
    -2.12  0.05165  0.24056  -0.04462
    -1.08  0.09001  0.24056  -0.04520
    -0.05  0.12805  0.24059  -0.04552
    -0.02  0.12814  0.24059  -0.04552
     1.15  0.17307  0.24066  -0.04594
     2.31  0.21540  0.24072  -0.04629
     3.46  0.25786  0.24083  -0.04653
     4.61  0.29898  0.24092  -0.04647
     5.76  0.33880  0.24104  -0.04618
     6.92  0.37655  0.24124  -0.04549
     8.07  0.40754  0.24146  -0.04359
    10.69  0.42163  0.24554  -0.03389
    13.31  0.36903  0.27408  -0.03131
    15.93  0.35635  0.29174  -0.03405
    18.55  0.36448  0.30933  -0.03831
    21.17  0.36246  0.33142  -0.04526
    23.79  0.35164  0.34664  -0.05408
    26.41  0.34082  0.36186  -0.06290
    29.04  0.32999  0.37708  -0.07172
    31.66  0.32231  0.39447  -0.07821
    34.28  0.31625  0.41298  -0.08350
    36.90  0.31019  0.43149  -0.08879
    39.52  0.30413  0.45000  -0.09407
    42.14  0.29618  0.46938  -0.09860
    44.76  0.28785  0.48893  -0.10298
    47.38  0.27951  0.50849  -0.10736
    50.00  0.27118  0.52804  -0.11174
    60.00  0.22250  0.59742  -0.12666
    70.00  0.15738  0.65248  -0.13965
    80.00  0.08066  0.68610  -0.15032
    90.00  0.00007  0.69364  -0.15800
   100.00  -0.05635  0.68610  -0.16435
   110.00  -0.11018  0.65248  -0.16554
   120.00  -0.15564  0.59742  -0.16251
   130.00  -0.18981  0.52804  -0.15732
   140.00  -0.21205  0.45316  -0.15303
   150.00  -0.22849  0.38227  -0.15558
   160.00  -0.25428  0.32418  -0.18059
   170.00  -0.12695  0.28617  -0.16125
   180.00  0.00007  0.27292  -0.00007
EOT
