AeroDyn airfoil file.  Compatible with AeroDyn v13.0.
Interpolated thickness: 0.667

  1        Number of airfoil tables in this file
  9990     Reynolds number in millions.  For efficiency, make very large if only one table.
  0        Control setting
  10.7154  Stall angle (deg)
  -3.2726  Zero lift angle of attack (deg)
  3.08078  Cn slope for zero lift (dimensionless)
  0.75213  Cn at stall value for positive angle of attack
  -0.8     Cn at stall value for negative angle of attack
  -2.12    Angle of attack for minimum CD (deg)
  0.201245 Minimum CD value
  -180.00  0.00006  0.24524  -0.00006
  -170.00  0.17269  0.26324  0.17521
  -160.00  0.34576  0.31490  -0.06280
  -150.00  0.31071  0.39386  -0.02766
  -140.00  0.28836  0.49021  -0.00317
  -130.00  0.25813  0.59199  0.02054
  -120.00  0.21169  0.68629  0.04407
  -110.00  0.14991  0.76112  0.06589
  -100.00  0.07673  0.80682  0.08376
   -90.00  0.00006  0.81708  0.09551
   -80.00  -0.07662  0.80682  0.10418
   -70.00  -0.14979  0.76112  0.10576
   -60.00  -0.21157  0.68629  0.10168
   -50.00  -0.25802  0.59199  0.09459
   -40.00  -0.28825  0.49021  0.08880
   -30.00  -0.31060  0.39386  0.09226
   -20.00  -0.34477  0.31482  0.12591
   -10.00  -0.14103  0.24309  0.05563
    -4.17  -0.03149  0.20133  -0.05903
    -3.17  0.01846  0.20129  -0.05991
    -2.12  0.07016  0.20125  -0.06061
    -1.08  0.12230  0.20125  -0.06140
    -0.05  0.17400  0.20129  -0.06184
    -0.02  0.17413  0.20129  -0.06184
     1.16  0.23520  0.20139  -0.06240
     2.31  0.29273  0.20146  -0.06288
     3.47  0.35044  0.20161  -0.06321
     4.63  0.40634  0.20174  -0.06313
     5.78  0.46045  0.20190  -0.06273
     6.94  0.51176  0.20217  -0.06180
     8.10  0.55389  0.20247  -0.05921
    10.72  0.57303  0.20802  -0.04603
    13.33  0.50154  0.24680  -0.04252
    15.95  0.48431  0.27081  -0.04624
    18.57  0.49536  0.29473  -0.05204
    21.19  0.49262  0.32474  -0.06148
    23.81  0.47791  0.34543  -0.07347
    26.43  0.46320  0.36612  -0.08546
    29.05  0.44849  0.38681  -0.09745
    31.67  0.43804  0.41044  -0.10627
    34.29  0.42980  0.43560  -0.11345
    36.91  0.42157  0.46076  -0.12064
    39.52  0.41333  0.48592  -0.12783
    42.14  0.40253  0.51226  -0.13399
    44.76  0.39120  0.53884  -0.13994
    47.38  0.37987  0.56542  -0.14588
    50.00  0.36855  0.59199  -0.15183
    60.00  0.30239  0.68629  -0.17212
    70.00  0.21388  0.76112  -0.18978
    80.00  0.10960  0.80682  -0.20428
    90.00  0.00006  0.81708  -0.21471
   100.00  -0.07662  0.80682  -0.22334
   110.00  -0.14979  0.76112  -0.22496
   120.00  -0.21157  0.68629  -0.22084
   130.00  -0.25802  0.59199  -0.21379
   140.00  -0.28825  0.49021  -0.20796
   150.00  -0.31060  0.39386  -0.21142
   160.00  -0.34565  0.31490  -0.24542
   170.00  -0.17258  0.26324  -0.21914
   180.00  0.00006  0.24524  -0.00006
EOT
