AeroDyn airfoil file.  Compatible with AeroDyn v13.0.
Interpolated thickness: 0.962

  1        Number of airfoil tables in this file
  9990     Reynolds number in millions.  For efficiency, make very large if only one table.
  0        Control setting
  10.6353  Stall angle (deg)
  -1.76899 Zero lift angle of attack (deg)
  0.660313 Cn slope for zero lift (dimensionless)
  0.142955 Cn at stall value for positive angle of attack
  -0.8     Cn at stall value for negative angle of attack
  -2.12    Angle of attack for minimum CD (deg)
  0.333025 Minimum CD value
  -180.00  0.00010  0.33804  -0.00010
  -170.00  0.01980  0.34010  0.01991
  -160.00  0.03955  0.34600  -0.00726
  -150.00  0.03555  0.35500  -0.00325
  -140.00  0.03300  0.36600  -0.00045
  -130.00  0.02955  0.37761  0.00226
  -120.00  0.02425  0.38838  0.00494
  -110.00  0.01720  0.39692  0.00743
  -100.00  0.00885  0.40213  0.00947
   -90.00  0.00010  0.40330  0.01081
   -80.00  -0.00866  0.40213  0.01180
   -70.00  -0.01701  0.39692  0.01198
   -60.00  -0.02406  0.38838  0.01152
   -50.00  -0.02936  0.37761  0.01071
   -40.00  -0.03281  0.36600  0.01005
   -30.00  -0.03536  0.35500  0.01044
   -20.00  -0.03926  0.34598  0.01428
   -10.00  -0.01601  0.33780  0.00626
    -4.17  -0.00351  0.33303  -0.00683
    -3.17  0.00220  0.33303  -0.00693
    -2.12  0.00810  0.33302  -0.00701
    -1.08  0.01405  0.33302  -0.00710
    -0.05  0.01995  0.33303  -0.00715
    -0.00  0.01996  0.33303  -0.00715
     1.14  0.02693  0.33304  -0.00721
     2.29  0.03349  0.33305  -0.00726
     3.43  0.04008  0.33307  -0.00730
     4.58  0.04646  0.33308  -0.00729
     5.72  0.05263  0.33310  -0.00725
     6.87  0.05849  0.33313  -0.00714
     8.01  0.06330  0.33316  -0.00685
    10.64  0.06548  0.33380  -0.00534
    13.26  0.05732  0.33822  -0.00494
    15.88  0.05536  0.34096  -0.00537
    18.51  0.05662  0.34369  -0.00603
    21.13  0.05630  0.34712  -0.00710
    23.76  0.05462  0.34948  -0.00847
    26.38  0.05295  0.35184  -0.00984
    29.01  0.05127  0.35420  -0.01121
    31.63  0.05008  0.35690  -0.01222
    34.25  0.04914  0.35977  -0.01304
    36.88  0.04820  0.36264  -0.01386
    39.50  0.04726  0.36551  -0.01468
    42.13  0.04602  0.36852  -0.01538
    44.75  0.04473  0.37155  -0.01606
    47.38  0.04344  0.37458  -0.01674
    50.00  0.04215  0.37761  -0.01742
    60.00  0.03460  0.38838  -0.01973
    70.00  0.02450  0.39692  -0.02175
    80.00  0.01260  0.40213  -0.02340
    90.00  0.00010  0.40330  -0.02459
   100.00  -0.00866  0.40213  -0.02558
   110.00  -0.01701  0.39692  -0.02576
   120.00  -0.02406  0.38838  -0.02529
   130.00  -0.02936  0.37761  -0.02449
   140.00  -0.03281  0.36600  -0.02382
   150.00  -0.03536  0.35500  -0.02422
   160.00  -0.03936  0.34600  -0.02810
   170.00  -0.01961  0.34010  -0.02510
   180.00  0.00010  0.33804  -0.00010
EOT
