AeroDyn airfoil file.  Compatible with AeroDyn v13.0.
Interpolated thickness: 0.315

  1        Number of airfoil tables in this file
  9990     Reynolds number in millions.  For efficiency, make very large if only one table.
  0        Control setting
  10.8109  Stall angle (deg)
  -3.55247 Zero lift angle of attack (deg)
  5.86122  Cn slope for zero lift (dimensionless)
  1.46934  Cn at stall value for positive angle of attack
  -0.8     Cn at stall value for negative angle of attack
  -2.12    Angle of attack for minimum CD (deg)
  0.0440033 Minimum CD value
  -180.00  0.00001  0.13450  -0.00001
  -170.00  0.35513  0.17154  0.36052
  -160.00  0.71115  0.27780  -0.12908
  -150.00  0.63904  0.44022  -0.05679
  -140.00  0.59308  0.63842  -0.00641
  -130.00  0.53088  0.84780  0.04235
  -120.00  0.43535  1.04176  0.09075
  -110.00  0.30826  1.19570  0.13564
  -100.00  0.15774  1.28971  0.17241
   -90.00  0.00001  1.31080  0.19657
   -80.00  -0.15772  1.28971  0.21441
   -70.00  -0.30824  1.19570  0.21766
   -60.00  -0.43533  1.04176  0.20928
   -50.00  -0.53087  0.84780  0.19467
   -40.00  -0.59306  0.63842  0.18278
   -30.00  -0.63902  0.44022  0.18990
   -20.00  -0.70933  0.27762  0.25912
   -10.00  -0.29021  0.13008  0.11455
    -4.17  -0.06488  0.04418  -0.12133
    -3.17  0.03787  0.04409  -0.12313
    -2.12  0.14422  0.04400  -0.12457
    -1.08  0.25148  0.04400  -0.12619
    -0.05  0.35783  0.04409  -0.12710
    -0.04  0.35808  0.04409  -0.12710
     1.17  0.48372  0.04429  -0.12826
     2.34  0.60206  0.04445  -0.12924
     3.51  0.72077  0.04476  -0.12992
     4.68  0.83576  0.04501  -0.12975
     5.86  0.94707  0.04535  -0.12894
     7.03  1.05261  0.04591  -0.12701
     8.20  1.13927  0.04653  -0.12169
    10.81  1.17866  0.05795  -0.09457
    13.42  1.03160  0.13772  -0.08735
    16.04  0.99615  0.18711  -0.09502
    18.65  1.01889  0.23630  -0.10694
    21.26  1.01324  0.29805  -0.12636
    23.87  0.98298  0.34060  -0.15102
    26.49  0.95272  0.38316  -0.17568
    29.10  0.92246  0.42572  -0.20035
    31.71  0.90097  0.47434  -0.21850
    34.32  0.88403  0.52609  -0.23328
    36.94  0.86708  0.57785  -0.24806
    39.55  0.85013  0.62960  -0.26284
    42.16  0.82792  0.68378  -0.27551
    44.77  0.80462  0.73845  -0.28775
    47.39  0.78132  0.79312  -0.29999
    50.00  0.75802  0.84780  -0.31223
    60.00  0.62192  1.04176  -0.35396
    70.00  0.43985  1.19570  -0.39028
    80.00  0.22534  1.28971  -0.42011
    90.00  0.00001  1.31080  -0.44156
   100.00  -0.15772  1.28971  -0.45932
   110.00  -0.30824  1.19570  -0.46266
   120.00  -0.43533  1.04176  -0.45418
   130.00  -0.53087  0.84780  -0.43967
   140.00  -0.59306  0.63842  -0.42768
   150.00  -0.63902  0.44022  -0.43480
   160.00  -0.71113  0.27780  -0.50475
   170.00  -0.35511  0.17154  -0.45067
   180.00  0.00001  0.13450  -0.00001
EOT
