AeroDyn airfoil file.  Compatible with AeroDyn v13.0.
Interpolated thickness: 0.971

  1        Number of airfoil tables in this file
  9990     Reynolds number in millions.  For efficiency, make very large if only one table.
  0        Control setting
  10.6329  Stall angle (deg)
  -1.52154 Zero lift angle of attack (deg)
  0.586827 Cn slope for zero lift (dimensionless)
  0.124486 Cn at stall value for positive angle of attack
  -0.8     Cn at stall value for negative angle of attack
  -2.12    Angle of attack for minimum CD (deg)
  0.337045 Minimum CD value
  -180.00  0.00010  0.34088  -0.00010
  -170.00  0.01513  0.34244  0.01517
  -160.00  0.03020  0.34694  -0.00556
  -150.00  0.02715  0.35382  -0.00250
  -140.00  0.02520  0.36221  -0.00037
  -130.00  0.02257  0.37107  0.00170
  -120.00  0.01853  0.37929  0.00375
  -110.00  0.01315  0.38580  0.00565
  -100.00  0.00677  0.38978  0.00720
   -90.00  0.00010  0.39068  0.00823
   -80.00  -0.00658  0.38978  0.00898
   -70.00  -0.01295  0.38580  0.00912
   -60.00  -0.01833  0.37929  0.00876
   -50.00  -0.02238  0.37107  0.00815
   -40.00  -0.02501  0.36221  0.00764
   -30.00  -0.02696  0.35382  0.00794
   -20.00  -0.02993  0.34694  0.01087
   -10.00  -0.01219  0.34069  0.00475
    -4.17  -0.00265  0.33705  -0.00523
    -3.17  0.00170  0.33705  -0.00531
    -2.12  0.00620  0.33705  -0.00537
    -1.08  0.01074  0.33705  -0.00544
    -0.05  0.01524  0.33705  -0.00548
    -0.00  0.01526  0.33705  -0.00548
     1.14  0.02057  0.33706  -0.00553
     2.29  0.02558  0.33706  -0.00557
     3.43  0.03061  0.33708  -0.00560
     4.58  0.03548  0.33709  -0.00559
     5.72  0.04019  0.33710  -0.00555
     6.86  0.04466  0.33713  -0.00547
     8.01  0.04833  0.33715  -0.00525
    10.63  0.05000  0.33764  -0.00410
    13.26  0.04377  0.34101  -0.00379
    15.88  0.04227  0.34310  -0.00412
    18.51  0.04323  0.34519  -0.00462
    21.13  0.04299  0.34780  -0.00545
    23.76  0.04171  0.34960  -0.00649
    26.38  0.04043  0.35140  -0.00753
    29.00  0.03915  0.35321  -0.00858
    31.63  0.03824  0.35526  -0.00935
    34.25  0.03752  0.35745  -0.00997
    36.88  0.03680  0.35965  -0.01060
    39.50  0.03609  0.36184  -0.01122
    42.13  0.03515  0.36413  -0.01176
    44.75  0.03416  0.36645  -0.01228
    47.38  0.03317  0.36876  -0.01280
    50.00  0.03219  0.37107  -0.01331
    60.00  0.02643  0.37929  -0.01508
    70.00  0.01872  0.38580  -0.01662
    80.00  0.00964  0.38978  -0.01788
    90.00  0.00010  0.39068  -0.01879
   100.00  -0.00658  0.38978  -0.01954
   110.00  -0.01295  0.38580  -0.01968
   120.00  -0.01833  0.37929  -0.01932
   130.00  -0.02238  0.37107  -0.01871
   140.00  -0.02501  0.36221  -0.01820
   150.00  -0.02696  0.35382  -0.01850
   160.00  -0.03001  0.34694  -0.02146
   170.00  -0.01494  0.34244  -0.01918
   180.00  0.00010  0.34088  -0.00010
EOT
