AeroDyn airfoil file.  Compatible with AeroDyn v13.0.
Interpolated thickness: 0.768

  1        Number of airfoil tables in this file
  9990     Reynolds number in millions.  For efficiency, make very large if only one table.
  0        Control setting
  10.688   Stall angle (deg)
  -3.10081 Zero lift angle of attack (deg)
  2.26303  Cn slope for zero lift (dimensionless)
  0.544619 Cn at stall value for positive angle of attack
  -0.8     Cn at stall value for negative angle of attack
  -2.12    Angle of attack for minimum CD (deg)
  0.246363 Minimum CD value
  -180.00  0.00007  0.27701  -0.00007
  -170.00  0.12034  0.28956  0.12204
  -160.00  0.24092  0.32555  -0.04378
  -150.00  0.21650  0.38056  -0.01930
  -140.00  0.20093  0.44768  -0.00224
  -130.00  0.17987  0.51860  0.01428
  -120.00  0.14751  0.58429  0.03067
  -110.00  0.10447  0.63643  0.04587
  -100.00  0.05349  0.66827  0.05833
   -90.00  0.00007  0.67541  0.06651
   -80.00  -0.05335  0.66827  0.07255
   -70.00  -0.10433  0.63643  0.07365
   -60.00  -0.14737  0.58429  0.07081
   -50.00  -0.17973  0.51860  0.06587
   -40.00  -0.20079  0.44768  0.06184
   -30.00  -0.21636  0.38056  0.06425
   -20.00  -0.24017  0.32549  0.08769
   -10.00  -0.09823  0.27552  0.03873
    -4.17  -0.02191  0.24642  -0.04116
    -3.17  0.01289  0.24639  -0.04177
    -2.12  0.04891  0.24636  -0.04226
    -1.08  0.08524  0.24636  -0.04281
    -0.05  0.12126  0.24639  -0.04311
    -0.01  0.12134  0.24639  -0.04311
     1.15  0.16390  0.24646  -0.04350
     2.30  0.20397  0.24651  -0.04384
     3.46  0.24418  0.24662  -0.04407
     4.61  0.28313  0.24670  -0.04401
     5.76  0.32083  0.24682  -0.04374
     6.91  0.35657  0.24701  -0.04308
     8.07  0.38592  0.24722  -0.04128
    10.69  0.39926  0.25109  -0.03210
    13.31  0.34945  0.27810  -0.02965
    15.93  0.33745  0.29483  -0.03225
    18.55  0.34515  0.31149  -0.03628
    21.17  0.34323  0.33240  -0.04286
    23.79  0.33299  0.34682  -0.05121
    26.41  0.32274  0.36123  -0.05957
    29.03  0.31249  0.37564  -0.06792
    31.65  0.30521  0.39211  -0.07407
    34.28  0.29947  0.40964  -0.07907
    36.90  0.29373  0.42717  -0.08408
    39.52  0.28799  0.44470  -0.08909
    42.14  0.28047  0.46305  -0.09338
    44.76  0.27258  0.48156  -0.09752
    47.38  0.26469  0.50008  -0.10167
    50.00  0.25680  0.51860  -0.10581
    60.00  0.21070  0.58429  -0.11995
    70.00  0.14904  0.63643  -0.13225
    80.00  0.07639  0.66827  -0.14235
    90.00  0.00007  0.67541  -0.14962
   100.00  -0.05335  0.66827  -0.15563
   110.00  -0.10433  0.63643  -0.15676
   120.00  -0.14737  0.58429  -0.15389
   130.00  -0.17973  0.51860  -0.14898
   140.00  -0.20079  0.44768  -0.14492
   150.00  -0.21636  0.38056  -0.14733
   160.00  -0.24078  0.32555  -0.17102
   170.00  -0.12020  0.28956  -0.15270
   180.00  0.00007  0.27701  -0.00007
EOT
