AeroDyn airfoil file.  Compatible with AeroDyn v13.0.
Interpolated thickness: 0.933

  1        Number of airfoil tables in this file
  9990     Reynolds number in millions.  For efficiency, make very large if only one table.
  0        Control setting
  10.6432  Stall angle (deg)
  -2.29146 Zero lift angle of attack (deg)
  0.896753 Cn slope for zero lift (dimensionless)
  0.202444 Cn at stall value for positive angle of attack
  -0.8     Cn at stall value for negative angle of attack
  -2.12    Angle of attack for minimum CD (deg)
  0.32007  Minimum CD value
  -180.00  0.00009  0.32892  -0.00009
  -170.00  0.03483  0.33254  0.03517
  -160.00  0.06965  0.34294  -0.01272
  -150.00  0.06260  0.35882  -0.00565
  -140.00  0.05810  0.37821  -0.00072
  -130.00  0.05202  0.39869  0.00405
  -120.00  0.04267  0.41766  0.00879
  -110.00  0.03024  0.43272  0.01318
  -100.00  0.01552  0.44191  0.01677
   -90.00  0.00009  0.44398  0.01914
   -80.00  -0.01534  0.44191  0.02088
   -70.00  -0.03006  0.43272  0.02120
   -60.00  -0.04249  0.41766  0.02038
   -50.00  -0.05183  0.39869  0.01895
   -40.00  -0.05792  0.37821  0.01779
   -30.00  -0.06241  0.35882  0.01848
   -20.00  -0.06929  0.34292  0.02525
   -10.00  -0.02830  0.32849  0.01111
    -4.17  -0.00626  0.32009  -0.01196
    -3.17  0.00379  0.32008  -0.01213
    -2.12  0.01420  0.32007  -0.01227
    -1.08  0.02469  0.32007  -0.01243
    -0.05  0.03509  0.32008  -0.01252
    -0.00  0.03511  0.32008  -0.01252
     1.15  0.04740  0.32010  -0.01263
     2.29  0.05898  0.32011  -0.01273
     3.44  0.07059  0.32014  -0.01280
     4.58  0.08184  0.32017  -0.01278
     5.73  0.09272  0.32020  -0.01270
     6.87  0.10305  0.32026  -0.01251
     8.02  0.11152  0.32032  -0.01199
    10.64  0.11537  0.32143  -0.00934
    13.27  0.10099  0.32924  -0.00863
    15.89  0.09752  0.33407  -0.00938
    18.51  0.09975  0.33888  -0.01055
    21.14  0.09919  0.34492  -0.01245
    23.76  0.09624  0.34908  -0.01486
    26.39  0.09328  0.35324  -0.01727
    29.01  0.09032  0.35741  -0.01969
    31.63  0.08821  0.36216  -0.02146
    34.26  0.08656  0.36722  -0.02291
    36.88  0.08490  0.37229  -0.02435
    39.50  0.08324  0.37735  -0.02580
    42.13  0.08107  0.38265  -0.02704
    44.75  0.07879  0.38799  -0.02823
    47.38  0.07651  0.39334  -0.02943
    50.00  0.07423  0.39869  -0.03063
    60.00  0.06092  0.41766  -0.03471
    70.00  0.04311  0.43272  -0.03826
    80.00  0.02213  0.44191  -0.04118
    90.00  0.00009  0.44398  -0.04328
   100.00  -0.01534  0.44191  -0.04502
   110.00  -0.03006  0.43272  -0.04534
   120.00  -0.04249  0.41766  -0.04451
   130.00  -0.05183  0.39869  -0.04309
   140.00  -0.05792  0.37821  -0.04192
   150.00  -0.06241  0.35882  -0.04262
   160.00  -0.06947  0.34294  -0.04946
   170.00  -0.03464  0.33254  -0.04417
   180.00  0.00009  0.32892  -0.00009
EOT
