AeroDyn airfoil file.  Compatible with AeroDyn v13.0.
Interpolated thickness: 0.977

  1        Number of airfoil tables in this file
  9990     Reynolds number in millions.  For efficiency, make very large if only one table.
  0        Control setting
  10.6312  Stall angle (deg)
  -1.31907 Zero lift angle of attack (deg)
  0.537809 Cn slope for zero lift (dimensionless)
  0.112172 Cn at stall value for positive angle of attack
  -0.8     Cn at stall value for negative angle of attack
  -2.12    Angle of attack for minimum CD (deg)
  0.339726 Minimum CD value
  -180.00  0.00010  0.34276  -0.00010
  -170.00  0.01202  0.34401  0.01201
  -160.00  0.02397  0.34758  -0.00443
  -150.00  0.02155  0.35303  -0.00200
  -140.00  0.02001  0.35968  -0.00031
  -130.00  0.01792  0.36671  0.00133
  -120.00  0.01471  0.37323  0.00295
  -110.00  0.01045  0.37840  0.00446
  -100.00  0.00539  0.38155  0.00569
   -90.00  0.00010  0.38226  0.00650
   -80.00  -0.00520  0.38155  0.00710
   -70.00  -0.01025  0.37840  0.00721
   -60.00  -0.01452  0.37323  0.00693
   -50.00  -0.01773  0.36671  0.00644
   -40.00  -0.01982  0.35968  0.00604
   -30.00  -0.02136  0.35303  0.00628
   -20.00  -0.02372  0.34757  0.00860
   -10.00  -0.00965  0.34262  0.00375
    -4.17  -0.00208  0.33973  -0.00417
    -3.17  0.00137  0.33973  -0.00423
    -2.12  0.00494  0.33973  -0.00428
    -1.08  0.00854  0.33973  -0.00433
    -0.05  0.01211  0.33973  -0.00436
    -0.00  0.01212  0.33973  -0.00436
     1.14  0.01634  0.33974  -0.00440
     2.29  0.02031  0.33974  -0.00444
     3.43  0.02430  0.33975  -0.00446
     4.58  0.02816  0.33976  -0.00445
     5.72  0.03190  0.33977  -0.00443
     6.86  0.03544  0.33979  -0.00436
     8.01  0.03835  0.33981  -0.00418
    10.63  0.03967  0.34019  -0.00327
    13.26  0.03473  0.34287  -0.00303
    15.88  0.03354  0.34453  -0.00329
    18.50  0.03431  0.34618  -0.00369
    21.13  0.03412  0.34826  -0.00434
    23.75  0.03310  0.34968  -0.00517
    26.38  0.03209  0.35111  -0.00600
    29.00  0.03107  0.35254  -0.00682
    31.63  0.03035  0.35417  -0.00743
    34.25  0.02978  0.35591  -0.00793
    36.88  0.02921  0.35765  -0.00843
    39.50  0.02864  0.35939  -0.00892
    42.13  0.02790  0.36121  -0.00935
    44.75  0.02711  0.36304  -0.00976
    47.38  0.02633  0.36488  -0.01017
    50.00  0.02555  0.36671  -0.01058
    60.00  0.02098  0.37323  -0.01198
    70.00  0.01487  0.37840  -0.01320
    80.00  0.00766  0.38155  -0.01420
    90.00  0.00010  0.38226  -0.01492
   100.00  -0.00520  0.38155  -0.01552
   110.00  -0.01025  0.37840  -0.01563
   120.00  -0.01452  0.37323  -0.01535
   130.00  -0.01773  0.36671  -0.01486
   140.00  -0.01982  0.35968  -0.01446
   150.00  -0.02136  0.35303  -0.01470
   160.00  -0.02378  0.34758  -0.01704
   170.00  -0.01183  0.34401  -0.01523
   180.00  0.00010  0.34276  -0.00010
EOT
