AeroDyn airfoil file.  Compatible with AeroDyn v13.0.
Interpolated thickness: 0.199

  1        Number of airfoil tables in this file
  9990     Reynolds number in millions.  For efficiency, make very large if only one table.
  0        Control setting
  14.6174  Stall angle (deg)
  -4.68524 Zero lift angle of attack (deg)
  6.28215  Cn slope for zero lift (dimensionless)
  2.11642  Cn at stall value for positive angle of attack
  -0.8     Cn at stall value for negative angle of attack
  -4.09    Angle of attack for minimum CD (deg)
  0.00829526 Minimum CD value
  -180.00  0.00000  0.15782  0.00000
  -170.00  0.39810  0.19815  0.40000
  -160.00  0.79720  0.31395  -0.13992
  -150.00  0.71017  0.49069  -0.06236
  -140.00  0.65917  0.70590  -0.00698
  -130.00  0.58959  0.93241  0.04659
  -120.00  0.48359  1.14093  0.09918
  -110.00  0.34200  1.30435  0.14699
  -100.00  0.17500  1.40074  0.18515
   -90.00  0.00000  1.41600  0.20873
   -80.00  -0.17500  1.40074  0.22929
   -70.00  -0.34200  1.30435  0.23377
   -60.00  -0.48359  1.14093  0.22517
   -50.00  -0.58959  0.93241  0.20932
   -40.00  -0.65917  0.70590  0.19577
   -30.00  -0.71017  0.49069  0.20209
   -20.00  -0.79579  0.31369  0.27702
   -10.00  -0.28803  0.10524  0.08294
    -6.04  -0.10581  0.02278  -0.10638
    -5.04  -0.01541  0.01431  -0.13113
    -4.09  0.06591  0.00830  -0.14878
    -3.02  0.18370  0.00831  -0.15034
    -2.02  0.29243  0.00833  -0.15133
    -1.03  0.40086  0.00839  -0.15226
    -0.02  0.51074  0.00855  -0.15324
     0.96  0.62010  0.00877  -0.15354
     1.92  0.72548  0.00903  -0.15414
     2.89  0.82993  0.00940  -0.15483
     3.85  0.93079  0.00972  -0.15412
     4.81  1.02897  0.01017  -0.15295
     5.77  1.11699  0.01066  -0.15005
     7.98  1.24107  0.01639  -0.13427
    10.19  1.27807  0.04131  -0.12080
    12.41  1.34188  0.07046  -0.11619
    14.62  1.35900  0.10883  -0.11299
    16.83  1.25495  0.20853  -0.12619
    19.04  1.19991  0.27744  -0.13759
    21.25  1.12903  0.33620  -0.16622
    23.46  1.10009  0.37533  -0.18839
    25.67  1.07114  0.41445  -0.21055
    27.89  1.04219  0.45358  -0.23272
    30.10  1.01606  0.49465  -0.25280
    32.31  0.99763  0.54070  -0.26781
    34.52  0.98157  0.58825  -0.28133
    36.73  0.96551  0.63581  -0.29486
    38.94  0.94946  0.68336  -0.30838
    41.15  0.93023  0.73225  -0.32069
    43.37  0.90807  0.78229  -0.33192
    45.58  0.88591  0.83233  -0.34315
    47.79  0.86375  0.88237  -0.35438
    50.00  0.84159  0.93241  -0.36561
    60.00  0.69059  1.14093  -0.41027
    70.00  0.48859  1.30435  -0.44840
    80.00  0.25000  1.40074  -0.47869
    90.00  0.00000  1.41600  -0.49927
   100.00  -0.17500  1.40074  -0.51979
   110.00  -0.34200  1.30435  -0.52431
   120.00  -0.48359  1.14093  -0.51567
   130.00  -0.58959  0.93241  -0.49987
   140.00  -0.65917  0.70590  -0.48627
   150.00  -0.71017  0.49069  -0.49259
   160.00  -0.79720  0.31395  -0.56802
   170.00  -0.39810  0.19815  -0.50000
   180.00  0.00000  0.15782  0.00000
EOT
