AeroDyn airfoil file.  Compatible with AeroDyn v13.0.
Interpolated thickness: 0.546

  1        Number of airfoil tables in this file
  9990     Reynolds number in millions.  For efficiency, make very large if only one table.
  0        Control setting
  10.7482  Stall angle (deg)
  -3.39965 Zero lift angle of attack (deg)
  4.04862  Cn slope for zero lift (dimensionless)
  0.999711 Cn at stall value for positive angle of attack
  -0.8     Cn at stall value for negative angle of attack
  -2.12    Angle of attack for minimum CD (deg)
  0.147193 Minimum CD value
  -180.00  0.00004  0.20717  -0.00004
  -170.00  0.23540  0.23172  0.23891
  -160.00  0.47136  0.30215  -0.08558
  -150.00  0.42357  0.40980  -0.03767
  -140.00  0.39311  0.54116  -0.00428
  -130.00  0.35189  0.67993  0.02804
  -120.00  0.28857  0.80848  0.06011
  -110.00  0.20434  0.91051  0.08986
  -100.00  0.10458  0.97282  0.11424
   -90.00  0.00004  0.98679  0.13025
   -80.00  -0.10450  0.97282  0.14207
   -70.00  -0.20426  0.91051  0.14422
   -60.00  -0.28849  0.80848  0.13867
   -50.00  -0.35181  0.67993  0.12899
   -40.00  -0.39303  0.54116  0.12111
   -30.00  -0.42349  0.40980  0.12583
   -20.00  -0.47009  0.30203  0.17170
   -10.00  -0.19231  0.20424  0.07589
    -4.17  -0.04297  0.14731  -0.08045
    -3.17  0.02513  0.14725  -0.08164
    -2.12  0.09562  0.14719  -0.08260
    -1.08  0.16671  0.14719  -0.08367
    -0.05  0.23720  0.14725  -0.08427
    -0.03  0.23736  0.14725  -0.08427
     1.16  0.32063  0.14738  -0.08504
     2.32  0.39906  0.14749  -0.08569
     3.48  0.47774  0.14769  -0.08614
     4.65  0.55395  0.14786  -0.08603
     5.81  0.62773  0.14808  -0.08549
     6.97  0.69768  0.14846  -0.08421
     8.13  0.75511  0.14887  -0.08069
    10.75  0.78122  0.15643  -0.06271
    13.36  0.68375  0.20931  -0.05793
    15.98  0.66026  0.24204  -0.06301
    18.60  0.67533  0.27464  -0.07091
    21.22  0.67158  0.31557  -0.08378
    23.83  0.65152  0.34377  -0.10013
    26.45  0.63147  0.37198  -0.11647
    29.07  0.61141  0.40018  -0.13282
    31.68  0.59717  0.43241  -0.14485
    34.30  0.58594  0.46671  -0.15464
    36.92  0.57471  0.50101  -0.16444
    39.53  0.56348  0.53531  -0.17424
    42.15  0.54876  0.57122  -0.18263
    44.77  0.53331  0.60745  -0.19075
    47.38  0.51787  0.64369  -0.19886
    50.00  0.50243  0.67993  -0.20697
    60.00  0.41222  0.80848  -0.23463
    70.00  0.29156  0.91051  -0.25870
    80.00  0.14938  0.97282  -0.27847
    90.00  0.00004  0.98679  -0.29269
   100.00  -0.10450  0.97282  -0.30446
   110.00  -0.20426  0.91051  -0.30667
   120.00  -0.28849  0.80848  -0.30105
   130.00  -0.35181  0.67993  -0.29144
   140.00  -0.39303  0.54116  -0.28349
   150.00  -0.42349  0.40980  -0.28821
   160.00  -0.47128  0.30215  -0.33457
   170.00  -0.23532  0.23172  -0.29872
   180.00  0.00004  0.20717  -0.00004
EOT
