AeroDyn airfoil file.  Compatible with AeroDyn v13.0.
Interpolated thickness: 0.321

  1        Number of airfoil tables in this file
  9990     Reynolds number in millions.  For efficiency, make very large if only one table.
  0        Control setting
  10.8093  Stall angle (deg)
  -3.54927 Zero lift angle of attack (deg)
  5.81471  Cn slope for zero lift (dimensionless)
  1.45719  Cn at stall value for positive angle of attack
  -0.8     Cn at stall value for negative angle of attack
  -2.12    Angle of attack for minimum CD (deg)
  0.0466836 Minimum CD value
  -180.00  0.00001  0.13638  -0.00001
  -170.00  0.35202  0.17310  0.35736
  -160.00  0.70492  0.27844  -0.12795
  -150.00  0.63345  0.43943  -0.05630
  -140.00  0.58788  0.63589  -0.00635
  -130.00  0.52624  0.84344  0.04198
  -120.00  0.43153  1.03570  0.08996
  -110.00  0.30556  1.18830  0.13445
  -100.00  0.15636  1.28148  0.17090
   -90.00  0.00001  1.30239  0.19484
   -80.00  -0.15634  1.28148  0.21253
   -70.00  -0.30554  1.18830  0.21575
   -60.00  -0.43151  1.03570  0.20744
   -50.00  -0.52621  0.84344  0.19297
   -40.00  -0.58786  0.63589  0.18118
   -30.00  -0.63342  0.43943  0.18823
   -20.00  -0.70311  0.27826  0.25685
   -10.00  -0.28767  0.13201  0.11354
    -4.17  -0.06432  0.04686  -0.12027
    -3.17  0.03753  0.04677  -0.12205
    -2.12  0.14296  0.04668  -0.12348
    -1.08  0.24928  0.04668  -0.12509
    -0.05  0.35470  0.04677  -0.12598
    -0.04  0.35494  0.04677  -0.12599
     1.17  0.47948  0.04697  -0.12713
     2.34  0.59678  0.04713  -0.12811
     3.51  0.71446  0.04743  -0.12878
     4.68  0.82844  0.04768  -0.12862
     5.85  0.93878  0.04801  -0.12781
     7.03  1.04339  0.04857  -0.12590
     8.20  1.12929  0.04919  -0.12062
    10.81  1.16833  0.06050  -0.09375
    13.42  1.02256  0.13958  -0.08659
    16.03  0.98743  0.18854  -0.09419
    18.65  1.00996  0.23730  -0.10600
    21.26  1.00436  0.29850  -0.12525
    23.87  0.97437  0.34069  -0.14970
    26.49  0.94437  0.38287  -0.17415
    29.10  0.91438  0.42505  -0.19859
    31.71  0.89308  0.47325  -0.21658
    34.32  0.87628  0.52455  -0.23124
    36.94  0.85949  0.57585  -0.24589
    39.55  0.84269  0.62715  -0.26054
    42.16  0.82067  0.68085  -0.27310
    44.77  0.79757  0.73505  -0.28523
    47.39  0.77447  0.78924  -0.29736
    50.00  0.75138  0.84344  -0.30949
    60.00  0.61647  1.03570  -0.35086
    70.00  0.43600  1.18830  -0.38686
    80.00  0.22337  1.28148  -0.41643
    90.00  0.00001  1.30239  -0.43770
   100.00  -0.15634  1.28148  -0.45530
   110.00  -0.30554  1.18830  -0.45860
   120.00  -0.43151  1.03570  -0.45021
   130.00  -0.52621  0.84344  -0.43582
   140.00  -0.58786  0.63589  -0.42394
   150.00  -0.63342  0.43943  -0.43100
   160.00  -0.70490  0.27844  -0.50033
   170.00  -0.35200  0.17310  -0.44672
   180.00  0.00001  0.13638  -0.00001
EOT
