AeroDyn airfoil file.  Compatible with AeroDyn v13.0.
Interpolated thickness: 0.738

  1        Number of airfoil tables in this file
  9990     Reynolds number in millions.  For efficiency, make very large if only one table.
  0        Control setting
  10.6961  Stall angle (deg)
  -3.16203 Zero lift angle of attack (deg)
  2.50687  Cn slope for zero lift (dimensionless)
  0.606338 Cn at stall value for positive angle of attack
  -0.8     Cn at stall value for negative angle of attack
  -2.12    Angle of attack for minimum CD (deg)
  0.232962 Minimum CD value
  -180.00  0.00007  0.26757  -0.00007
  -170.00  0.13589  0.28174  0.13783
  -160.00  0.27206  0.32239  -0.04943
  -150.00  0.24448  0.38451  -0.02178
  -140.00  0.22690  0.46032  -0.00251
  -130.00  0.20312  0.54040  0.01614
  -120.00  0.16657  0.61459  0.03465
  -110.00  0.11797  0.67347  0.05182
  -100.00  0.06039  0.70942  0.06588
   -90.00  0.00007  0.71749  0.07512
   -80.00  -0.06026  0.70942  0.08195
   -70.00  -0.11783  0.67347  0.08319
   -60.00  -0.16644  0.61459  0.07998
   -50.00  -0.20298  0.54040  0.07440
   -40.00  -0.22677  0.46032  0.06985
   -30.00  -0.24435  0.38451  0.07257
   -20.00  -0.27124  0.32232  0.09905
   -10.00  -0.11094  0.26588  0.04375
    -4.17  -0.02476  0.23303  -0.04647
    -3.17  0.01454  0.23300  -0.04716
    -2.12  0.05522  0.23296  -0.04771
    -1.08  0.09625  0.23296  -0.04833
    -0.05  0.13693  0.23300  -0.04867
    -0.02  0.13702  0.23300  -0.04867
     1.15  0.18508  0.23307  -0.04912
     2.31  0.23034  0.23313  -0.04950
     3.46  0.27574  0.23325  -0.04975
     4.61  0.31972  0.23335  -0.04969
     5.77  0.36230  0.23348  -0.04938
     6.92  0.40267  0.23369  -0.04864
     8.08  0.43581  0.23393  -0.04661
    10.70  0.45088  0.23829  -0.03623
    13.32  0.39463  0.26881  -0.03347
    15.94  0.38107  0.28770  -0.03640
    18.56  0.38977  0.30651  -0.04096
    21.18  0.38761  0.33013  -0.04839
    23.80  0.37603  0.34641  -0.05782
    26.42  0.36446  0.36268  -0.06726
    29.04  0.35288  0.37896  -0.07669
    31.66  0.34467  0.39756  -0.08363
    34.28  0.33819  0.41735  -0.08929
    36.90  0.33170  0.43715  -0.09494
    39.52  0.32522  0.45694  -0.10059
    42.14  0.31672  0.47766  -0.10544
    44.76  0.30781  0.49858  -0.11012
    47.38  0.29890  0.51949  -0.11480
    50.00  0.28999  0.54040  -0.11948
    60.00  0.23793  0.61459  -0.13544
    70.00  0.16830  0.67347  -0.14934
    80.00  0.08625  0.70942  -0.16075
    90.00  0.00007  0.71749  -0.16895
   100.00  -0.06026  0.70942  -0.17574
   110.00  -0.11783  0.67347  -0.17702
   120.00  -0.16644  0.61459  -0.17378
   130.00  -0.20298  0.54040  -0.16823
   140.00  -0.22677  0.46032  -0.16364
   150.00  -0.24435  0.38451  -0.16637
   160.00  -0.27193  0.32239  -0.19312
   170.00  -0.13576  0.28174  -0.17243
   180.00  0.00007  0.26757  -0.00007
EOT
