AeroDyn airfoil file.  Compatible with AeroDyn v13.0.
Interpolated thickness: 0.739

  1        Number of airfoil tables in this file
  9990     Reynolds number in millions.  For efficiency, make very large if only one table.
  0        Control setting
  10.6958  Stall angle (deg)
  -3.16016 Zero lift angle of attack (deg)
  2.49876  Cn slope for zero lift (dimensionless)
  0.604281 Cn at stall value for positive angle of attack
  -0.8     Cn at stall value for negative angle of attack
  -2.12    Angle of attack for minimum CD (deg)
  0.233409 Minimum CD value
  -180.00  0.00007  0.26789  -0.00007
  -170.00  0.13537  0.28200  0.13730
  -160.00  0.27102  0.32249  -0.04924
  -150.00  0.24355  0.38438  -0.02170
  -140.00  0.22604  0.45989  -0.00250
  -130.00  0.20234  0.53967  0.01608
  -120.00  0.16594  0.61358  0.03452
  -110.00  0.11752  0.67223  0.05162
  -100.00  0.06016  0.70805  0.06563
   -90.00  0.00007  0.71609  0.07483
   -80.00  -0.06003  0.70805  0.08163
   -70.00  -0.11738  0.67223  0.08287
   -60.00  -0.16581  0.61358  0.07968
   -50.00  -0.20221  0.53967  0.07411
   -40.00  -0.22591  0.45989  0.06958
   -30.00  -0.24342  0.38438  0.07229
   -20.00  -0.27021  0.32242  0.09867
   -10.00  -0.11052  0.26621  0.04358
    -4.17  -0.02466  0.23348  -0.04629
    -3.17  0.01449  0.23344  -0.04698
    -2.12  0.05501  0.23341  -0.04753
    -1.08  0.09588  0.23341  -0.04814
    -0.05  0.13640  0.23344  -0.04849
    -0.02  0.13650  0.23344  -0.04849
     1.15  0.18437  0.23352  -0.04893
     2.31  0.22946  0.23358  -0.04931
     3.46  0.27469  0.23370  -0.04956
     4.61  0.31850  0.23379  -0.04950
     5.77  0.36092  0.23392  -0.04919
     6.92  0.40113  0.23414  -0.04846
     8.08  0.43415  0.23437  -0.04643
    10.70  0.44916  0.23872  -0.03610
    13.32  0.39312  0.26912  -0.03334
    15.94  0.37962  0.28793  -0.03627
    18.56  0.38828  0.30668  -0.04081
    21.18  0.38613  0.33021  -0.04821
    23.80  0.37460  0.34642  -0.05760
    26.42  0.36307  0.36264  -0.06700
    29.04  0.35154  0.37885  -0.07640
    31.66  0.34335  0.39738  -0.08331
    34.28  0.33690  0.41709  -0.08895
    36.90  0.33044  0.43681  -0.09458
    39.52  0.32398  0.45653  -0.10021
    42.14  0.31552  0.47718  -0.10504
    44.76  0.30664  0.49801  -0.10970
    47.38  0.29776  0.51884  -0.11436
    50.00  0.28888  0.53967  -0.11903
    60.00  0.23703  0.61358  -0.13493
    70.00  0.16766  0.67223  -0.14877
    80.00  0.08592  0.70805  -0.16013
    90.00  0.00007  0.71609  -0.16831
   100.00  -0.06003  0.70805  -0.17507
   110.00  -0.11738  0.67223  -0.17634
   120.00  -0.16581  0.61358  -0.17312
   130.00  -0.20221  0.53967  -0.16759
   140.00  -0.22591  0.45989  -0.16302
   150.00  -0.24342  0.38438  -0.16573
   160.00  -0.27089  0.32249  -0.19238
   170.00  -0.13524  0.28200  -0.17178
   180.00  0.00007  0.26789  -0.00007
EOT
