AeroDyn airfoil file.  Compatible with AeroDyn v13.0.
Interpolated thickness: 0.934

  1        Number of airfoil tables in this file
  9990     Reynolds number in millions.  For efficiency, make very large if only one table.
  0        Control setting
  10.6429  Stall angle (deg)
  -2.27805 Zero lift angle of attack (deg)
  0.888608 Cn slope for zero lift (dimensionless)
  0.200393 Cn at stall value for positive angle of attack
  -0.8     Cn at stall value for negative angle of attack
  -2.12    Angle of attack for minimum CD (deg)
  0.320517 Minimum CD value
  -180.00  0.00009  0.32924  -0.00009
  -170.00  0.03431  0.33281  0.03465
  -160.00  0.06861  0.34304  -0.01253
  -150.00  0.06166  0.35869  -0.00556
  -140.00  0.05723  0.37779  -0.00071
  -130.00  0.05124  0.39796  0.00399
  -120.00  0.04204  0.41665  0.00865
  -110.00  0.02979  0.43148  0.01298
  -100.00  0.01529  0.44054  0.01652
   -90.00  0.00009  0.44257  0.01885
   -80.00  -0.01511  0.44054  0.02057
   -70.00  -0.02961  0.43148  0.02088
   -60.00  -0.04185  0.41665  0.02007
   -50.00  -0.05106  0.39796  0.01867
   -40.00  -0.05705  0.37779  0.01752
   -30.00  -0.06148  0.35869  0.01821
   -20.00  -0.06825  0.34303  0.02488
   -10.00  -0.02787  0.32881  0.01095
    -4.17  -0.00616  0.32053  -0.01178
    -3.17  0.00374  0.32053  -0.01195
    -2.12  0.01399  0.32052  -0.01209
    -1.08  0.02432  0.32052  -0.01225
    -0.05  0.03457  0.32053  -0.01234
    -0.00  0.03459  0.32053  -0.01234
     1.15  0.04670  0.32054  -0.01245
     2.29  0.05810  0.32056  -0.01254
     3.44  0.06954  0.32059  -0.01261
     4.58  0.08062  0.32061  -0.01259
     5.73  0.09134  0.32065  -0.01251
     6.87  0.10151  0.32070  -0.01233
     8.02  0.10986  0.32076  -0.01182
    10.64  0.11365  0.32186  -0.00920
    13.27  0.09949  0.32955  -0.00851
    15.89  0.09607  0.33431  -0.00925
    18.51  0.09826  0.33904  -0.01039
    21.14  0.09772  0.34499  -0.01226
    23.76  0.09480  0.34909  -0.01464
    26.39  0.09188  0.35320  -0.01702
    29.01  0.08897  0.35730  -0.01939
    31.63  0.08690  0.36198  -0.02114
    34.26  0.08527  0.36697  -0.02257
    36.88  0.08363  0.37195  -0.02399
    39.50  0.08200  0.37694  -0.02541
    42.13  0.07986  0.38216  -0.02664
    44.75  0.07762  0.38743  -0.02782
    47.38  0.07537  0.39270  -0.02899
    50.00  0.07313  0.39796  -0.03017
    60.00  0.06001  0.41665  -0.03419
    70.00  0.04247  0.43148  -0.03769
    80.00  0.02180  0.44054  -0.04057
    90.00  0.00009  0.44257  -0.04264
   100.00  -0.01511  0.44054  -0.04435
   110.00  -0.02961  0.43148  -0.04467
   120.00  -0.04185  0.41665  -0.04385
   130.00  -0.05106  0.39796  -0.04245
   140.00  -0.05705  0.37779  -0.04130
   150.00  -0.06148  0.35869  -0.04198
   160.00  -0.06843  0.34304  -0.04872
   170.00  -0.03412  0.33281  -0.04351
   180.00  0.00009  0.32924  -0.00009
EOT
