AeroDyn airfoil file.  Compatible with AeroDyn v13.0.
Interpolated thickness: 0.806

  1        Number of airfoil tables in this file
  9990     Reynolds number in millions.  For efficiency, make very large if only one table.
  0        Control setting
  10.6776  Stall angle (deg)
  -3.08328 Zero lift angle of attack (deg)
  1.92602  Cn slope for zero lift (dimensionless)
  0.462578 Cn at stall value for positive angle of attack
  -0.8     Cn at stall value for negative angle of attack
  -2.12    Angle of attack for minimum CD (deg)
  0.263338 Minimum CD value
  -180.00  0.00007  0.28897  -0.00007
  -170.00  0.10065  0.29946  0.10203
  -160.00  0.20148  0.32955  -0.03663
  -150.00  0.18106  0.37555  -0.01616
  -140.00  0.16804  0.43168  -0.00189
  -130.00  0.15042  0.49098  0.01192
  -120.00  0.12337  0.54591  0.02563
  -110.00  0.08737  0.58951  0.03834
  -100.00  0.04475  0.61614  0.04876
   -90.00  0.00007  0.62211  0.05560
   -80.00  -0.04460  0.61614  0.06065
   -70.00  -0.08723  0.58951  0.06157
   -60.00  -0.12322  0.54591  0.05920
   -50.00  -0.15028  0.49098  0.05506
   -40.00  -0.16789  0.43168  0.05169
   -30.00  -0.18091  0.37555  0.05371
   -20.00  -0.20082  0.32950  0.07331
   -10.00  -0.08212  0.28772  0.03237
    -4.17  -0.01830  0.26339  -0.03443
    -3.17  0.01080  0.26336  -0.03494
    -2.12  0.04092  0.26334  -0.03535
    -1.08  0.07129  0.26334  -0.03581
    -0.05  0.10141  0.26336  -0.03607
    -0.01  0.10148  0.26336  -0.03607
     1.15  0.13707  0.26342  -0.03640
     2.30  0.17058  0.26346  -0.03668
     3.45  0.20420  0.26355  -0.03687
     4.60  0.23677  0.26362  -0.03682
     5.75  0.26829  0.26372  -0.03659
     6.91  0.29818  0.26388  -0.03604
     8.06  0.32273  0.26405  -0.03453
    10.68  0.33388  0.26729  -0.02686
    13.30  0.29223  0.28988  -0.02481
    15.92  0.28219  0.30387  -0.02698
    18.54  0.28863  0.31780  -0.03036
    21.16  0.28703  0.33529  -0.03586
    23.79  0.27846  0.34734  -0.04284
    26.41  0.26989  0.35939  -0.04983
    29.03  0.26132  0.37144  -0.05681
    31.65  0.25524  0.38521  -0.06195
    34.27  0.25044  0.39987  -0.06614
    36.89  0.24564  0.41453  -0.07032
    39.51  0.24084  0.42919  -0.07451
    42.14  0.23455  0.44453  -0.07810
    44.76  0.22795  0.46001  -0.08157
    47.38  0.22135  0.47550  -0.08503
    50.00  0.21475  0.49098  -0.08850
    60.00  0.17621  0.54591  -0.10032
    70.00  0.12464  0.58951  -0.11060
    80.00  0.06389  0.61614  -0.11905
    90.00  0.00007  0.62211  -0.12513
   100.00  -0.04460  0.61614  -0.13016
   110.00  -0.08723  0.58951  -0.13110
   120.00  -0.12322  0.54591  -0.12870
   130.00  -0.15028  0.49098  -0.12459
   140.00  -0.16789  0.43168  -0.12120
   150.00  -0.18091  0.37555  -0.12321
   160.00  -0.20133  0.32955  -0.14302
   170.00  -0.10050  0.29946  -0.12771
   180.00  0.00007  0.28897  -0.00007
EOT
