AeroDyn airfoil file.  Compatible with AeroDyn v13.0.
Interpolated thickness: 0.552

  1        Number of airfoil tables in this file
  9990     Reynolds number in millions.  For efficiency, make very large if only one table.
  0        Control setting
  10.7466  Stall angle (deg)
  -3.39448 Zero lift angle of attack (deg)
  4.00093  Cn slope for zero lift (dimensionless)
  0.987461 Cn at stall value for positive angle of attack
  -0.8     Cn at stall value for negative angle of attack
  -2.12    Angle of attack for minimum CD (deg)
  0.149874 Minimum CD value
  -180.00  0.00004  0.20906  -0.00004
  -170.00  0.23229  0.23328  0.23575
  -160.00  0.46514  0.30278  -0.08445
  -150.00  0.41798  0.40901  -0.03718
  -140.00  0.38791  0.53863  -0.00423
  -130.00  0.34724  0.67557  0.02766
  -120.00  0.28476  0.80242  0.05932
  -110.00  0.20164  0.90310  0.08867
  -100.00  0.10320  0.96459  0.11273
   -90.00  0.00004  0.97838  0.12852
   -80.00  -0.10312  0.96459  0.14019
   -70.00  -0.20156  0.90310  0.14232
   -60.00  -0.28467  0.80242  0.13683
   -50.00  -0.34716  0.67557  0.12729
   -40.00  -0.38783  0.53863  0.11950
   -30.00  -0.41790  0.40901  0.12416
   -20.00  -0.46387  0.30267  0.16943
   -10.00  -0.18977  0.20617  0.07488
    -4.17  -0.04240  0.14999  -0.07938
    -3.17  0.02480  0.14993  -0.08056
    -2.12  0.09436  0.14987  -0.08151
    -1.08  0.16450  0.14987  -0.08257
    -0.05  0.23406  0.14993  -0.08316
    -0.03  0.23422  0.14993  -0.08316
     1.16  0.31639  0.15006  -0.08392
     2.32  0.39379  0.15017  -0.08456
     3.48  0.47143  0.15037  -0.08500
     4.65  0.54663  0.15053  -0.08489
     5.81  0.61943  0.15075  -0.08437
     6.97  0.68846  0.15112  -0.08310
     8.13  0.74514  0.15152  -0.07962
    10.75  0.77089  0.15899  -0.06189
    13.36  0.67472  0.21117  -0.05716
    15.98  0.65153  0.24347  -0.06218
    18.60  0.66640  0.27564  -0.06997
    21.21  0.66271  0.31602  -0.08267
    23.83  0.64291  0.34386  -0.09880
    26.45  0.62312  0.37169  -0.11493
    29.06  0.60333  0.39952  -0.13107
    31.68  0.58928  0.43132  -0.14294
    34.30  0.57820  0.46517  -0.15260
    36.92  0.56712  0.49901  -0.16227
    39.53  0.55603  0.53286  -0.17193
    42.15  0.54150  0.56830  -0.18022
    44.77  0.52627  0.60405  -0.18823
    47.38  0.51103  0.63981  -0.19623
    50.00  0.49579  0.67557  -0.20423
    60.00  0.40678  0.80242  -0.23153
    70.00  0.28770  0.90310  -0.25528
    80.00  0.14741  0.96459  -0.27479
    90.00  0.00004  0.97838  -0.28882
   100.00  -0.10312  0.96459  -0.30044
   110.00  -0.20156  0.90310  -0.30262
   120.00  -0.28467  0.80242  -0.29708
   130.00  -0.34716  0.67557  -0.28759
   140.00  -0.38783  0.53863  -0.27975
   150.00  -0.41790  0.40901  -0.28440
   160.00  -0.46505  0.30278  -0.33015
   170.00  -0.23221  0.23328  -0.29478
   180.00  0.00004  0.20906  -0.00004
EOT
