AeroDyn airfoil file.  Compatible with AeroDyn v13.0.
Interpolated thickness: 0.955

  1        Number of airfoil tables in this file
  9990     Reynolds number in millions.  For efficiency, make very large if only one table.
  0        Control setting
  10.6372  Stall angle (deg)
  -1.92651 Zero lift angle of attack (deg)
  0.717433 Cn slope for zero lift (dimensionless)
  0.157317 Cn at stall value for positive angle of attack
  -0.8     Cn at stall value for negative angle of attack
  -2.12    Angle of attack for minimum CD (deg)
  0.329898 Minimum CD value
  -180.00  0.00009  0.33584  -0.00009
  -170.00  0.02342  0.33828  0.02359
  -160.00  0.04681  0.34526  -0.00857
  -150.00  0.04207  0.35593  -0.00382
  -140.00  0.03905  0.36895  -0.00051
  -130.00  0.03497  0.38270  0.00269
  -120.00  0.02869  0.39544  0.00587
  -110.00  0.02034  0.40556  0.00882
  -100.00  0.01046  0.41173  0.01123
   -90.00  0.00009  0.41312  0.01282
   -80.00  -0.01027  0.41173  0.01399
   -70.00  -0.02016  0.40556  0.01421
   -60.00  -0.02850  0.39544  0.01365
   -50.00  -0.03478  0.38270  0.01270
   -40.00  -0.03887  0.36895  0.01191
   -30.00  -0.04189  0.35593  0.01238
   -20.00  -0.04650  0.34525  0.01693
   -10.00  -0.01897  0.33555  0.00743
    -4.17  -0.00417  0.32991  -0.00806
    -3.17  0.00258  0.32990  -0.00818
    -2.12  0.00957  0.32990  -0.00828
    -1.08  0.01661  0.32990  -0.00838
    -0.05  0.02360  0.32990  -0.00844
    -0.00  0.02362  0.32990  -0.00844
     1.14  0.03187  0.32992  -0.00852
     2.29  0.03964  0.32993  -0.00858
     3.43  0.04744  0.32995  -0.00863
     4.58  0.05500  0.32996  -0.00862
     5.72  0.06231  0.32999  -0.00856
     6.87  0.06924  0.33002  -0.00844
     8.01  0.07494  0.33006  -0.00809
    10.64  0.07752  0.33081  -0.00631
    13.26  0.06786  0.33605  -0.00583
    15.89  0.06553  0.33930  -0.00634
    18.51  0.06703  0.34253  -0.00712
    21.13  0.06666  0.34659  -0.00839
    23.76  0.06467  0.34938  -0.01001
    26.38  0.06268  0.35218  -0.01163
    29.01  0.06069  0.35497  -0.01325
    31.63  0.05928  0.35817  -0.01445
    34.25  0.05817  0.36157  -0.01542
    36.88  0.05705  0.36497  -0.01639
    39.50  0.05594  0.36837  -0.01736
    42.13  0.05448  0.37193  -0.01819
    44.75  0.05295  0.37552  -0.01900
    47.38  0.05142  0.37911  -0.01980
    50.00  0.04989  0.38270  -0.02060
    60.00  0.04095  0.39544  -0.02335
    70.00  0.02899  0.40556  -0.02573
    80.00  0.01490  0.41173  -0.02769
    90.00  0.00009  0.41312  -0.02910
   100.00  -0.01027  0.41173  -0.03027
   110.00  -0.02016  0.40556  -0.03049
   120.00  -0.02850  0.39544  -0.02993
   130.00  -0.03478  0.38270  -0.02898
   140.00  -0.03887  0.36895  -0.02819
   150.00  -0.04189  0.35593  -0.02866
   160.00  -0.04662  0.34526  -0.03325
   170.00  -0.02323  0.33828  -0.02970
   180.00  0.00009  0.33584  -0.00009
EOT
