AeroDyn airfoil file.  Compatible with AeroDyn v13.0.
Interpolated thickness: 0.464

  1        Number of airfoil tables in this file
  9990     Reynolds number in millions.  For efficiency, make very large if only one table.
  0        Control setting
  10.7705  Stall angle (deg)
  -3.46263 Zero lift angle of attack (deg)
  4.69727  Cn slope for zero lift (dimensionless)
  1.16687  Cn at stall value for positive angle of attack
  -0.8     Cn at stall value for negative angle of attack
  -2.12    Angle of attack for minimum CD (deg)
  0.110563 Minimum CD value
  -180.00  0.00003  0.18137  -0.00003
  -170.00  0.27790  0.21036  0.28208
  -160.00  0.55648  0.29351  -0.10102
  -150.00  0.50006  0.42060  -0.04446
  -140.00  0.46409  0.57568  -0.00504
  -130.00  0.41543  0.73952  0.03312
  -120.00  0.34067  0.89129  0.07099
  -110.00  0.24123  1.01175  0.10611
  -100.00  0.12345  1.08531  0.13489
   -90.00  0.00003  1.10181  0.15379
   -80.00  -0.12339  1.08531  0.16775
   -70.00  -0.24117  1.01175  0.17029
   -60.00  -0.34061  0.89129  0.16373
   -50.00  -0.41537  0.73952  0.15231
   -40.00  -0.46403  0.57568  0.14300
   -30.00  -0.50000  0.42060  0.14857
   -20.00  -0.55501  0.29337  0.20273
   -10.00  -0.22707  0.17792  0.08961
    -4.17  -0.05075  0.11070  -0.09496
    -3.17  0.02965  0.11063  -0.09637
    -2.12  0.11287  0.11056  -0.09750
    -1.08  0.19680  0.11056  -0.09877
    -0.05  0.28002  0.11063  -0.09947
    -0.03  0.28021  0.11063  -0.09947
     1.17  0.37852  0.11079  -0.10038
     2.33  0.47112  0.11091  -0.10115
     3.50  0.56401  0.11115  -0.10168
     4.66  0.65399  0.11135  -0.10155
     5.83  0.74109  0.11161  -0.10092
     6.99  0.82367  0.11206  -0.09941
     8.16  0.89148  0.11254  -0.09524
    10.77  0.92230  0.12147  -0.07402
    13.39  0.80723  0.18390  -0.06837
    16.00  0.77949  0.22254  -0.07437
    18.62  0.79728  0.26103  -0.08370
    21.23  0.79286  0.30935  -0.09889
    23.85  0.76918  0.34265  -0.11819
    26.46  0.74550  0.37595  -0.13749
    29.08  0.72183  0.40925  -0.15679
    31.69  0.70502  0.44729  -0.17099
    34.31  0.69176  0.48779  -0.18256
    36.92  0.67850  0.52829  -0.19412
    39.54  0.66524  0.56878  -0.20569
    42.15  0.64785  0.61117  -0.21560
    44.77  0.62962  0.65396  -0.22518
    47.38  0.61139  0.69674  -0.23476
    50.00  0.59316  0.73952  -0.24433
    60.00  0.48666  0.89129  -0.27699
    70.00  0.34420  1.01175  -0.30541
    80.00  0.17635  1.08531  -0.32875
    90.00  0.00003  1.10181  -0.34554
   100.00  -0.12339  1.08531  -0.35943
   110.00  -0.24117  1.01175  -0.36204
   120.00  -0.34061  0.89129  -0.35541
   130.00  -0.41537  0.73952  -0.34406
   140.00  -0.46403  0.57568  -0.33468
   150.00  -0.50000  0.42060  -0.34025
   160.00  -0.55642  0.29351  -0.39498
   170.00  -0.27784  0.21036  -0.35266
   180.00  0.00003  0.18137  -0.00003
EOT
