AeroDyn airfoil file.  Compatible with AeroDyn v13.0.
Interpolated thickness: 0.938

  1        Number of airfoil tables in this file
  9990     Reynolds number in millions.  For efficiency, make very large if only one table.
  0        Control setting
  10.6418  Stall angle (deg)
  -2.22187 Zero lift angle of attack (deg)
  0.856025 Cn slope for zero lift (dimensionless)
  0.192189 Cn at stall value for positive angle of attack
  -0.8     Cn at stall value for negative angle of attack
  -2.12    Angle of attack for minimum CD (deg)
  0.322304 Minimum CD value
  -180.00  0.00009  0.33049  -0.00009
  -170.00  0.03223  0.33385  0.03254
  -160.00  0.06446  0.34347  -0.01177
  -150.00  0.05793  0.35817  -0.00523
  -140.00  0.05377  0.37611  -0.00067
  -130.00  0.04814  0.39506  0.00374
  -120.00  0.03949  0.41261  0.00812
  -110.00  0.02799  0.42655  0.01219
  -100.00  0.01437  0.43505  0.01551
   -90.00  0.00009  0.43696  0.01770
   -80.00  -0.01418  0.43505  0.01932
   -70.00  -0.02781  0.42655  0.01961
   -60.00  -0.03931  0.41261  0.01885
   -50.00  -0.04796  0.39506  0.01753
   -40.00  -0.05359  0.37611  0.01645
   -30.00  -0.05775  0.35817  0.01710
   -20.00  -0.06411  0.34345  0.02336
   -10.00  -0.02618  0.33009  0.01028
    -4.17  -0.00578  0.32232  -0.01107
    -3.17  0.00352  0.32231  -0.01124
    -2.12  0.01314  0.32230  -0.01137
    -1.08  0.02285  0.32230  -0.01151
    -0.05  0.03248  0.32231  -0.01159
    -0.00  0.03250  0.32231  -0.01159
     1.15  0.04387  0.32233  -0.01170
     2.29  0.05458  0.32234  -0.01179
     3.44  0.06533  0.32237  -0.01185
     4.58  0.07574  0.32240  -0.01183
     5.73  0.08581  0.32243  -0.01176
     6.87  0.09536  0.32248  -0.01159
     8.02  0.10321  0.32253  -0.01111
    10.64  0.10677  0.32357  -0.00865
    13.27  0.09346  0.33079  -0.00800
    15.89  0.09025  0.33526  -0.00869
    18.51  0.09231  0.33971  -0.00977
    21.14  0.09180  0.34530  -0.01153
    23.76  0.08906  0.34915  -0.01376
    26.39  0.08632  0.35300  -0.01599
    29.01  0.08358  0.35685  -0.01822
    31.63  0.08164  0.36125  -0.01987
    34.26  0.08010  0.36594  -0.02121
    36.88  0.07857  0.37062  -0.02254
    39.50  0.07704  0.37531  -0.02388
    42.13  0.07503  0.38021  -0.02503
    44.75  0.07292  0.38516  -0.02614
    47.38  0.07081  0.39011  -0.02724
    50.00  0.06870  0.39506  -0.02835
    60.00  0.05638  0.41261  -0.03213
    70.00  0.03990  0.42655  -0.03542
    80.00  0.02049  0.43505  -0.03812
    90.00  0.00009  0.43696  -0.04006
   100.00  -0.01418  0.43505  -0.04166
   110.00  -0.02781  0.42655  -0.04197
   120.00  -0.03931  0.41261  -0.04120
   130.00  -0.04796  0.39506  -0.03989
   140.00  -0.05359  0.37611  -0.03880
   150.00  -0.05775  0.35817  -0.03945
   160.00  -0.06427  0.34347  -0.04578
   170.00  -0.03205  0.33385  -0.04088
   180.00  0.00009  0.33049  -0.00009
EOT
