AeroDyn airfoil file.  Compatible with AeroDyn v13.0.
Interpolated thickness: 0.317

  1        Number of airfoil tables in this file
  9990     Reynolds number in millions.  For efficiency, make very large if only one table.
  0        Control setting
  10.8104  Stall angle (deg)
  -3.55141 Zero lift angle of attack (deg)
  5.84572  Cn slope for zero lift (dimensionless)
  1.46529  Cn at stall value for positive angle of attack
  -0.8     Cn at stall value for negative angle of attack
  -2.12    Angle of attack for minimum CD (deg)
  0.0448967 Minimum CD value
  -180.00  0.00001  0.13512  -0.00001
  -170.00  0.35409  0.17206  0.35946
  -160.00  0.70907  0.27802  -0.12870
  -150.00  0.63718  0.43996  -0.05663
  -140.00  0.59134  0.63758  -0.00639
  -130.00  0.52934  0.84634  0.04223
  -120.00  0.43407  1.03974  0.09049
  -110.00  0.30736  1.19324  0.13524
  -100.00  0.15728  1.28697  0.17191
   -90.00  0.00001  1.30800  0.19599
   -80.00  -0.15726  1.28697  0.21379
   -70.00  -0.30734  1.19324  0.21702
   -60.00  -0.43405  1.03974  0.20866
   -50.00  -0.52931  0.84634  0.19411
   -40.00  -0.59132  0.63758  0.18224
   -30.00  -0.63716  0.43996  0.18934
   -20.00  -0.70725  0.27784  0.25836
   -10.00  -0.28937  0.13072  0.11421
    -4.17  -0.06470  0.04508  -0.12097
    -3.17  0.03775  0.04499  -0.12277
    -2.12  0.14380  0.04490  -0.12421
    -1.08  0.25074  0.04490  -0.12583
    -0.05  0.35679  0.04499  -0.12672
    -0.04  0.35703  0.04499  -0.12673
     1.17  0.48231  0.04518  -0.12788
     2.34  0.60030  0.04534  -0.12887
     3.51  0.71867  0.04565  -0.12954
     4.68  0.83332  0.04590  -0.12937
     5.86  0.94431  0.04623  -0.12857
     7.03  1.04954  0.04680  -0.12664
     8.20  1.13595  0.04741  -0.12133
    10.81  1.17522  0.05880  -0.09430
    13.42  1.02859  0.13834  -0.08710
    16.04  0.99324  0.18758  -0.09474
    18.65  1.01591  0.23663  -0.10663
    21.26  1.01028  0.29820  -0.12599
    23.87  0.98011  0.34063  -0.15058
    26.49  0.94993  0.38306  -0.17517
    29.10  0.91976  0.42550  -0.19976
    31.71  0.89834  0.47397  -0.21786
    34.32  0.88144  0.52558  -0.23260
    36.94  0.86455  0.57718  -0.24733
    39.55  0.84765  0.62878  -0.26207
    42.16  0.82550  0.68280  -0.27471
    44.77  0.80227  0.73732  -0.28691
    47.39  0.77904  0.79183  -0.29911
    50.00  0.75580  0.84634  -0.31131
    60.00  0.62010  1.03974  -0.35292
    70.00  0.43857  1.19324  -0.38914
    80.00  0.22468  1.28697  -0.41889
    90.00  0.00001  1.30800  -0.44028
   100.00  -0.15726  1.28697  -0.45798
   110.00  -0.30734  1.19324  -0.46130
   120.00  -0.43405  1.03974  -0.45286
   130.00  -0.52931  0.84634  -0.43839
   140.00  -0.59132  0.63758  -0.42644
   150.00  -0.63716  0.43996  -0.43354
   160.00  -0.70905  0.27802  -0.50327
   170.00  -0.35407  0.17206  -0.44935
   180.00  0.00001  0.13512  -0.00001
EOT
