AeroDyn airfoil file.  Compatible with AeroDyn v13.0.
Interpolated thickness: 0.187

  1        Number of airfoil tables in this file
  9990     Reynolds number in millions.  For efficiency, make very large if only one table.
  0        Control setting
  14.0441  Stall angle (deg)
  -5.04234 Zero lift angle of attack (deg)
  6.20587  Cn slope for zero lift (dimensionless)
  2.06731  Cn at stall value for positive angle of attack
  -0.8     Cn at stall value for negative angle of attack
  -4.09    Angle of attack for minimum CD (deg)
  0.00759377 Minimum CD value
  -180.00  0.00000  0.17155  0.00000
  -170.00  0.39930  0.21166  0.40000
  -160.00  0.79960  0.32684  -0.13896
  -150.00  0.71051  0.50257  -0.06217
  -140.00  0.65951  0.71641  -0.00695
  -130.00  0.58976  0.94122  0.04647
  -120.00  0.48376  1.14779  0.09873
  -110.00  0.34200  1.30905  0.14596
  -100.00  0.17500  1.40312  0.18335
   -90.00  0.00000  1.41600  0.20599
   -80.00  -0.17500  1.40312  0.22677
   -70.00  -0.34200  1.30905  0.23151
   -60.00  -0.48376  1.14779  0.22311
   -50.00  -0.58976  0.94122  0.20737
   -40.00  -0.65951  0.71641  0.19371
   -30.00  -0.71051  0.50257  0.19957
   -20.00  -0.79836  0.32656  0.27395
   -10.00  -0.27809  0.10502  0.07001
    -6.04  -0.09223  0.01737  -0.12269
    -5.04  0.01207  0.01120  -0.14155
    -4.09  0.10360  0.00759  -0.15289
    -3.02  0.22024  0.00764  -0.15430
    -2.02  0.32784  0.00770  -0.15513
    -1.03  0.43485  0.00778  -0.15584
    -0.01  0.54395  0.00795  -0.15682
     0.84  0.63813  0.00816  -0.15678
     1.69  0.72942  0.00843  -0.15719
     2.53  0.81963  0.00878  -0.15792
     3.37  0.90769  0.00911  -0.15726
     4.21  0.99394  0.00949  -0.15636
     5.06  1.07396  0.00989  -0.15446
     7.30  1.22202  0.01478  -0.14128
     9.55  1.30921  0.03127  -0.12847
    11.80  1.40532  0.05112  -0.12106
    14.04  1.43500  0.08593  -0.11477
    16.29  1.29139  0.20405  -0.12841
    18.54  1.22012  0.27584  -0.13843
    20.79  1.13636  0.34074  -0.16904
    23.03  1.10680  0.38026  -0.19129
    25.28  1.07724  0.41979  -0.21353
    27.53  1.04768  0.45931  -0.23578
    29.77  1.01977  0.49997  -0.25680
    32.02  1.00035  0.54606  -0.27236
    34.27  0.98399  0.59408  -0.28600
    36.52  0.96764  0.64211  -0.29965
    38.76  0.95128  0.69013  -0.31329
    41.01  0.93214  0.73929  -0.32588
    43.26  0.90954  0.78977  -0.33722
    45.51  0.88695  0.84026  -0.34856
    47.75  0.86435  0.89074  -0.35990
    50.00  0.84176  0.94122  -0.37123
    60.00  0.69076  1.14779  -0.41541
    70.00  0.48876  1.30905  -0.45291
    80.00  0.25000  1.40312  -0.48238
    90.00  0.00000  1.41600  -0.50201
   100.00  -0.17500  1.40312  -0.52277
   110.00  -0.34200  1.30905  -0.52753
   120.00  -0.48376  1.14779  -0.51912
   130.00  -0.58976  0.94122  -0.50340
   140.00  -0.65951  0.71641  -0.48972
   150.00  -0.71051  0.50257  -0.49557
   160.00  -0.79960  0.32684  -0.57037
   170.00  -0.39930  0.21166  -0.50000
   180.00  0.00000  0.17155  0.00000
EOT
