AeroDyn airfoil file.  Compatible with AeroDyn v13.0.
Interpolated thickness: 0.694

  1        Number of airfoil tables in this file
  9990     Reynolds number in millions.  For efficiency, make very large if only one table.
  0        Control setting
  10.708   Stall angle (deg)
  -3.23503 Zero lift angle of attack (deg)
  2.86306  Cn slope for zero lift (dimensionless)
  0.696733 Cn at stall value for positive angle of attack
  -0.8     Cn at stall value for negative angle of attack
  -2.12    Angle of attack for minimum CD (deg)
  0.213307 Minimum CD value
  -180.00  0.00006  0.25373  -0.00006
  -170.00  0.15870  0.27028  0.16099
  -160.00  0.31774  0.31775  -0.05772
  -150.00  0.28553  0.39030  -0.02543
  -140.00  0.26499  0.47884  -0.00292
  -130.00  0.23721  0.57237  0.01886
  -120.00  0.19453  0.65902  0.04049
  -110.00  0.13776  0.72779  0.06054
  -100.00  0.07052  0.76978  0.07696
   -90.00  0.00006  0.77921  0.08775
   -80.00  -0.07040  0.76978  0.09573
   -70.00  -0.13764  0.72779  0.09718
   -60.00  -0.19441  0.65902  0.09343
   -50.00  -0.23709  0.57237  0.08691
   -40.00  -0.26487  0.47884  0.08159
   -30.00  -0.28541  0.39030  0.08477
   -20.00  -0.31681  0.31767  0.11570
   -10.00  -0.12959  0.25176  0.05111
    -4.17  -0.02893  0.21339  -0.05425
    -3.17  0.01697  0.21335  -0.05506
    -2.12  0.06448  0.21331  -0.05570
    -1.08  0.11239  0.21331  -0.05643
    -0.05  0.15990  0.21335  -0.05683
    -0.02  0.16001  0.21335  -0.05683
     1.16  0.21614  0.21343  -0.05735
     2.31  0.26900  0.21351  -0.05779
     3.47  0.32204  0.21364  -0.05809
     4.62  0.37340  0.21376  -0.05802
     5.78  0.42313  0.21391  -0.05766
     6.93  0.47027  0.21416  -0.05679
     8.09  0.50899  0.21443  -0.05442
    10.71  0.52658  0.21953  -0.04230
    13.33  0.46089  0.25517  -0.03908
    15.95  0.44505  0.27723  -0.04250
    18.57  0.45521  0.29921  -0.04783
    21.19  0.45268  0.32679  -0.05650
    23.81  0.43917  0.34580  -0.06752
    26.42  0.42565  0.36481  -0.07854
    29.04  0.41213  0.38382  -0.08955
    31.66  0.40253  0.40554  -0.09766
    34.28  0.39496  0.42866  -0.10426
    36.90  0.38739  0.45178  -0.11087
    39.52  0.37982  0.47490  -0.11747
    42.14  0.36990  0.49910  -0.12313
    44.76  0.35949  0.52353  -0.12860
    47.38  0.34908  0.54795  -0.13406
    50.00  0.33867  0.57237  -0.13953
    60.00  0.27788  0.65902  -0.15817
    70.00  0.19654  0.72779  -0.17440
    80.00  0.10072  0.76978  -0.18773
    90.00  0.00006  0.77921  -0.19731
   100.00  -0.07040  0.76978  -0.20524
   110.00  -0.13764  0.72779  -0.20673
   120.00  -0.19441  0.65902  -0.20295
   130.00  -0.23709  0.57237  -0.19646
   140.00  -0.26487  0.47884  -0.19111
   150.00  -0.28541  0.39030  -0.19429
   160.00  -0.31762  0.31775  -0.22553
   170.00  -0.15858  0.27028  -0.20138
   180.00  0.00006  0.25373  -0.00006
EOT
