AeroDyn airfoil file.  Compatible with AeroDyn v13.0.
Interpolated thickness: 0.829

  1        Number of airfoil tables in this file
  9990     Reynolds number in millions.  For efficiency, make very large if only one table.
  0        Control setting
  10.6714  Stall angle (deg)
  -3.00807 Zero lift angle of attack (deg)
  1.74036  Cn slope for zero lift (dimensionless)
  0.415513 Cn at stall value for positive angle of attack
  -0.8     Cn at stall value for negative angle of attack
  -2.12    Angle of attack for minimum CD (deg)
  0.273612 Minimum CD value
  -180.00  0.00008  0.29620  -0.00008
  -170.00  0.08873  0.30545  0.08992
  -160.00  0.17760  0.33198  -0.03230
  -150.00  0.15960  0.37252  -0.01425
  -140.00  0.14813  0.42200  -0.00168
  -130.00  0.13260  0.47427  0.01050
  -120.00  0.10875  0.52269  0.02258
  -110.00  0.07703  0.56112  0.03379
  -100.00  0.03945  0.58459  0.04297
   -90.00  0.00008  0.58985  0.04900
   -80.00  -0.03930  0.58459  0.05345
   -70.00  -0.07687  0.56112  0.05426
   -60.00  -0.10860  0.52269  0.05217
   -50.00  -0.13245  0.47427  0.04852
   -40.00  -0.14797  0.42200  0.04555
   -30.00  -0.15945  0.37252  0.04733
   -20.00  -0.17700  0.33193  0.06461
   -10.00  -0.07237  0.29510  0.02852
    -4.17  -0.01612  0.27366  -0.03036
    -3.17  0.00953  0.27363  -0.03081
    -2.12  0.03608  0.27361  -0.03117
    -1.08  0.06285  0.27361  -0.03158
    -0.05  0.08940  0.27363  -0.03180
    -0.01  0.08946  0.27364  -0.03180
     1.15  0.12083  0.27368  -0.03209
     2.30  0.15037  0.27372  -0.03234
     3.45  0.18001  0.27380  -0.03251
     4.60  0.20871  0.27386  -0.03247
     5.75  0.23650  0.27395  -0.03226
     6.90  0.26284  0.27409  -0.03178
     8.05  0.28448  0.27424  -0.03045
    10.67  0.29431  0.27709  -0.02368
    13.29  0.25760  0.29701  -0.02188
    15.92  0.24875  0.30934  -0.02379
    18.54  0.25443  0.32162  -0.02677
    21.16  0.25301  0.33703  -0.03162
    23.78  0.24546  0.34765  -0.03777
    26.40  0.23791  0.35828  -0.04393
    29.02  0.23035  0.36890  -0.05009
    31.65  0.22499  0.38104  -0.05462
    34.27  0.22076  0.39396  -0.05831
    36.89  0.21653  0.40688  -0.06200
    39.51  0.21230  0.41980  -0.06569
    42.13  0.20675  0.43332  -0.06885
    44.76  0.20094  0.44697  -0.07191
    47.38  0.19512  0.46062  -0.07496
    50.00  0.18930  0.47427  -0.07802
    60.00  0.15533  0.52269  -0.08844
    70.00  0.10988  0.56112  -0.09750
    80.00  0.05633  0.58459  -0.10495
    90.00  0.00008  0.58985  -0.11031
   100.00  -0.03930  0.58459  -0.11474
   110.00  -0.07687  0.56112  -0.11557
   120.00  -0.10860  0.52269  -0.11346
   130.00  -0.13245  0.47427  -0.10983
   140.00  -0.14797  0.42200  -0.10684
   150.00  -0.15945  0.37252  -0.10862
   160.00  -0.17745  0.33198  -0.12608
   170.00  -0.08857  0.30545  -0.11258
   180.00  0.00008  0.29620  -0.00008
EOT
