AeroDyn airfoil file.  Compatible with AeroDyn v13.0.
Interpolated thickness: 0.388

  1        Number of airfoil tables in this file
  9990     Reynolds number in millions.  For efficiency, make very large if only one table.
  0        Control setting
  10.7911  Stall angle (deg)
  -3.51146 Zero lift angle of attack (deg)
  5.29331  Cn slope for zero lift (dimensionless)
  1.32135  Cn at stall value for positive angle of attack
  -0.8     Cn at stall value for negative angle of attack
  -2.12    Angle of attack for minimum CD (deg)
  0.0766132 Minimum CD value
  -180.00  0.00002  0.15746  -0.00002
  -170.00  0.31729  0.19056  0.32209
  -160.00  0.63537  0.28550  -0.11533
  -150.00  0.57095  0.43061  -0.05075
  -140.00  0.52988  0.60768  -0.00574
  -130.00  0.47432  0.79475  0.03783
  -120.00  0.38896  0.96804  0.08107
  -110.00  0.27542  1.10558  0.12117
  -100.00  0.14094  1.18957  0.15403
   -90.00  0.00002  1.20841  0.17561
   -80.00  -0.14090  1.18957  0.19155
   -70.00  -0.27538  1.10558  0.19445
   -60.00  -0.38892  0.96804  0.18696
   -50.00  -0.47428  0.79475  0.17392
   -40.00  -0.52984  0.60768  0.16329
   -30.00  -0.57091  0.43061  0.16965
   -20.00  -0.63372  0.28534  0.23149
   -10.00  -0.25928  0.15352  0.10233
    -4.17  -0.05796  0.07677  -0.10841
    -3.17  0.03384  0.07669  -0.11002
    -2.12  0.12886  0.07661  -0.11131
    -1.08  0.22469  0.07661  -0.11276
    -0.05  0.31971  0.07669  -0.11356
    -0.04  0.31993  0.07669  -0.11356
     1.17  0.43218  0.07687  -0.11460
     2.34  0.53791  0.07701  -0.11548
     3.50  0.64397  0.07729  -0.11609
     4.67  0.74670  0.07751  -0.11593
     5.84  0.84615  0.07781  -0.11521
     7.01  0.94045  0.07832  -0.11349
     8.18  1.01787  0.07887  -0.10873
    10.79  1.05306  0.08907  -0.08451
    13.41  0.92167  0.16034  -0.07805
    16.02  0.89000  0.20447  -0.08490
    18.63  0.91032  0.24842  -0.09555
    21.25  0.90527  0.30358  -0.11290
    23.86  0.87823  0.34161  -0.13494
    26.47  0.85120  0.37963  -0.15697
    29.09  0.82416  0.41765  -0.17901
    31.70  0.80497  0.46109  -0.19522
    34.32  0.78983  0.50733  -0.20843
    36.93  0.77469  0.55356  -0.22163
    39.54  0.75955  0.59980  -0.23484
    42.16  0.73970  0.64821  -0.24616
    44.77  0.71888  0.69705  -0.25709
    47.39  0.69806  0.74590  -0.26803
    50.00  0.67725  0.79475  -0.27896
    60.00  0.55565  0.96804  -0.31625
    70.00  0.39299  1.10558  -0.34870
    80.00  0.20134  1.18957  -0.37535
    90.00  0.00002  1.20841  -0.39452
   100.00  -0.14090  1.18957  -0.41038
   110.00  -0.27538  1.10558  -0.41336
   120.00  -0.38892  0.96804  -0.40579
   130.00  -0.47428  0.79475  -0.39283
   140.00  -0.52984  0.60768  -0.38212
   150.00  -0.57091  0.43061  -0.38848
   160.00  -0.63533  0.28550  -0.45097
   170.00  -0.31725  0.19056  -0.40265
   180.00  0.00002  0.15746  -0.00002
EOT
