AeroDyn airfoil file.  Compatible with AeroDyn v13.0.
Interpolated thickness: 0.909

  1        Number of airfoil tables in this file
  9990     Reynolds number in millions.  For efficiency, make very large if only one table.
  0        Control setting
  10.6497  Stall angle (deg)
  -2.55375 Zero lift angle of attack (deg)
  1.09203  Cn slope for zero lift (dimensionless)
  0.251651 Cn at stall value for positive angle of attack
  -0.8     Cn at stall value for negative angle of attack
  -2.12    Angle of attack for minimum CD (deg)
  0.309349 Minimum CD value
  -180.00  0.00009  0.32137  -0.00009
  -170.00  0.04726  0.32629  0.04781
  -160.00  0.09456  0.34041  -0.01723
  -150.00  0.08498  0.36199  -0.00763
  -140.00  0.07887  0.38832  -0.00094
  -130.00  0.07061  0.41613  0.00554
  -120.00  0.05792  0.44190  0.01197
  -110.00  0.04104  0.46235  0.01793
  -100.00  0.02104  0.47484  0.02282
   -90.00  0.00009  0.47764  0.02603
   -80.00  -0.02087  0.47484  0.02840
   -70.00  -0.04086  0.46235  0.02883
   -60.00  -0.05774  0.44190  0.02771
   -50.00  -0.07044  0.41613  0.02578
   -40.00  -0.07870  0.38832  0.02419
   -30.00  -0.08481  0.36199  0.02514
   -20.00  -0.09414  0.34039  0.03434
   -10.00  -0.03847  0.32078  0.01513
    -4.17  -0.00853  0.30937  -0.01620
    -3.17  0.00512  0.30936  -0.01644
    -2.12  0.01925  0.30935  -0.01664
    -1.08  0.03349  0.30935  -0.01685
    -0.05  0.04762  0.30936  -0.01697
    -0.01  0.04766  0.30936  -0.01697
     1.15  0.06435  0.30939  -0.01712
     2.29  0.08007  0.30941  -0.01726
     3.44  0.09584  0.30945  -0.01735
     4.59  0.11111  0.30948  -0.01732
     5.73  0.12590  0.30953  -0.01722
     6.88  0.13992  0.30960  -0.01696
     8.03  0.15144  0.30968  -0.01625
    10.65  0.15667  0.31120  -0.01265
    13.27  0.13713  0.32180  -0.01169
    15.90  0.13242  0.32836  -0.01271
    18.52  0.13544  0.33490  -0.01429
    21.14  0.13469  0.34310  -0.01687
    23.77  0.13067  0.34875  -0.02015
    26.39  0.12665  0.35441  -0.02343
    29.01  0.12263  0.36006  -0.02670
    31.64  0.11978  0.36652  -0.02911
    34.26  0.11753  0.37339  -0.03108
    36.88  0.11528  0.38027  -0.03304
    39.51  0.11302  0.38714  -0.03500
    42.13  0.11007  0.39434  -0.03669
    44.75  0.10698  0.40160  -0.03831
    47.38  0.10388  0.40887  -0.03994
    50.00  0.10079  0.41613  -0.04156
    60.00  0.08271  0.44190  -0.04711
    70.00  0.05852  0.46235  -0.05193
    80.00  0.03002  0.47484  -0.05590
    90.00  0.00009  0.47764  -0.05875
   100.00  -0.02087  0.47484  -0.06111
   110.00  -0.04086  0.46235  -0.06155
   120.00  -0.05774  0.44190  -0.06042
   130.00  -0.07044  0.41613  -0.05850
   140.00  -0.07870  0.38832  -0.05690
   150.00  -0.08481  0.36199  -0.05785
   160.00  -0.09438  0.34041  -0.06714
   170.00  -0.04709  0.32629  -0.05996
   180.00  0.00009  0.32137  -0.00009
EOT
