AeroDyn airfoil file.  Compatible with AeroDyn v13.0.
Interpolated thickness: 0.559

  1        Number of airfoil tables in this file
  9990     Reynolds number in millions.  For efficiency, make very large if only one table.
  0        Control setting
  10.7447  Stall angle (deg)
  -3.38833 Zero lift angle of attack (deg)
  3.94525  Cn slope for zero lift (dimensionless)
  0.973165 Cn at stall value for positive angle of attack
  -0.8     Cn at stall value for negative angle of attack
  -2.12    Angle of attack for minimum CD (deg)
  0.153001 Minimum CD value
  -180.00  0.00004  0.21126  -0.00004
  -170.00  0.22867  0.23511  0.23206
  -160.00  0.45787  0.30352  -0.08314
  -150.00  0.41145  0.40808  -0.03660
  -140.00  0.38186  0.53568  -0.00416
  -130.00  0.34182  0.67048  0.02723
  -120.00  0.28031  0.79535  0.05839
  -110.00  0.19849  0.89446  0.08729
  -100.00  0.10159  0.95498  0.11096
   -90.00  0.00004  0.96856  0.12651
   -80.00  -0.10150  0.95498  0.13800
   -70.00  -0.19841  0.89446  0.14009
   -60.00  -0.28023  0.79535  0.13470
   -50.00  -0.34173  0.67048  0.12529
   -40.00  -0.38177  0.53568  0.11764
   -30.00  -0.41136  0.40808  0.12222
   -20.00  -0.45663  0.30340  0.16678
   -10.00  -0.18680  0.20842  0.07371
    -4.17  -0.04174  0.15312  -0.07815
    -3.17  0.02441  0.15306  -0.07931
    -2.12  0.09288  0.15300  -0.08023
    -1.08  0.16194  0.15300  -0.08128
    -0.05  0.23041  0.15306  -0.08186
    -0.03  0.23057  0.15306  -0.08186
     1.16  0.31145  0.15319  -0.08261
     2.32  0.38764  0.15329  -0.08324
     3.48  0.46407  0.15349  -0.08368
     4.64  0.53809  0.15365  -0.08357
     5.81  0.60976  0.15386  -0.08305
     6.97  0.67770  0.15423  -0.08181
     8.13  0.73349  0.15463  -0.07838
    10.74  0.75885  0.16198  -0.06092
    13.36  0.66417  0.21334  -0.05627
    15.98  0.64135  0.24513  -0.06121
    18.60  0.65599  0.27680  -0.06888
    21.21  0.65235  0.31655  -0.08138
    23.83  0.63287  0.34395  -0.09726
    26.45  0.61339  0.37135  -0.11314
    29.06  0.59391  0.39875  -0.12902
    31.68  0.58008  0.43005  -0.14070
    34.30  0.56917  0.46337  -0.15022
    36.91  0.55826  0.49669  -0.15973
    39.53  0.54735  0.53001  -0.16925
    42.15  0.53305  0.56488  -0.17741
    44.77  0.51804  0.60008  -0.18529
    47.38  0.50304  0.63528  -0.19317
    50.00  0.48804  0.67048  -0.20105
    60.00  0.40042  0.79535  -0.22791
    70.00  0.28321  0.89446  -0.25130
    80.00  0.14511  0.95498  -0.27050
    90.00  0.00004  0.96856  -0.28431
   100.00  -0.10150  0.95498  -0.29574
   110.00  -0.19841  0.89446  -0.29789
   120.00  -0.28023  0.79535  -0.29244
   130.00  -0.34173  0.67048  -0.28309
   140.00  -0.38177  0.53568  -0.27538
   150.00  -0.41136  0.40808  -0.27996
   160.00  -0.45779  0.30352  -0.32499
   170.00  -0.22858  0.23511  -0.29017
   180.00  0.00004  0.21126  -0.00004
EOT
