AeroDyn airfoil file.  Compatible with AeroDyn v13.0.
Interpolated thickness: 0.436

  1        Number of airfoil tables in this file
  9990     Reynolds number in millions.  For efficiency, make very large if only one table.
  0        Control setting
  10.7781  Stall angle (deg)
  -3.4815  Zero lift angle of attack (deg)
  4.91744  Cn slope for zero lift (dimensionless)
  1.22383  Cn at stall value for positive angle of attack
  -0.8     Cn at stall value for negative angle of attack
  -2.12    Angle of attack for minimum CD (deg)
  0.0980553 Minimum CD value
  -180.00  0.00003  0.17256  -0.00003
  -170.00  0.29242  0.20306  0.29682
  -160.00  0.58555  0.29056  -0.10630
  -150.00  0.52618  0.42428  -0.04678
  -140.00  0.48833  0.58747  -0.00529
  -130.00  0.43713  0.75986  0.03485
  -120.00  0.35846  0.91957  0.07470
  -110.00  0.25383  1.04632  0.11166
  -100.00  0.12989  1.12372  0.14194
   -90.00  0.00003  1.14108  0.16183
   -80.00  -0.12984  1.12372  0.17652
   -70.00  -0.25377  1.04632  0.17919
   -60.00  -0.35841  0.91957  0.17229
   -50.00  -0.43707  0.75986  0.16027
   -40.00  -0.48828  0.58747  0.15047
   -30.00  -0.52613  0.42428  0.15634
   -20.00  -0.58401  0.29041  0.21333
   -10.00  -0.23893  0.16893  0.09430
    -4.17  -0.05341  0.09820  -0.09991
    -3.17  0.03119  0.09813  -0.10140
    -2.12  0.11876  0.09806  -0.10258
    -1.08  0.20707  0.09806  -0.10392
    -0.05  0.29464  0.09813  -0.10466
    -0.04  0.29485  0.09813  -0.10466
     1.17  0.39829  0.09829  -0.10562
     2.33  0.49573  0.09842  -0.10643
     3.50  0.59347  0.09867  -0.10699
     4.66  0.68814  0.09888  -0.10685
     5.83  0.77980  0.09916  -0.10618
     7.00  0.86669  0.09963  -0.10459
     8.16  0.93805  0.10013  -0.10021
    10.78  0.97047  0.10953  -0.07789
    13.39  0.84939  0.17522  -0.07194
    16.01  0.82021  0.21588  -0.07825
    18.62  0.83893  0.25638  -0.08807
    21.24  0.83427  0.30723  -0.10405
    23.85  0.80936  0.34226  -0.12436
    26.47  0.78444  0.37730  -0.14467
    29.08  0.75953  0.41234  -0.16498
    31.70  0.74184  0.45237  -0.17992
    34.31  0.72789  0.49499  -0.19209
    36.93  0.71393  0.53760  -0.20426
    39.54  0.69998  0.58021  -0.21643
    42.16  0.68169  0.62482  -0.22686
    44.77  0.66251  0.66983  -0.23694
    47.39  0.64332  0.71485  -0.24701
    50.00  0.62414  0.75986  -0.25709
    60.00  0.51208  0.91957  -0.29145
    70.00  0.36217  1.04632  -0.32136
    80.00  0.18555  1.12372  -0.34592
    90.00  0.00003  1.14108  -0.36358
   100.00  -0.12984  1.12372  -0.37820
   110.00  -0.25377  1.04632  -0.38095
   120.00  -0.35841  0.91957  -0.37397
   130.00  -0.43707  0.75986  -0.36202
   140.00  -0.48828  0.58747  -0.35215
   150.00  -0.52613  0.42428  -0.35802
   160.00  -0.58550  0.29056  -0.41560
   170.00  -0.29236  0.20306  -0.37108
   180.00  0.00003  0.17256  -0.00003
EOT
