AeroDyn airfoil file.  Compatible with AeroDyn v13.0.
Interpolated thickness: 0.186

  1        Number of airfoil tables in this file
  9990     Reynolds number in millions.  For efficiency, make very large if only one table.
  0        Control setting
  13.9963  Stall angle (deg)
  -5.07264 Zero lift angle of attack (deg)
  6.19916  Cn slope for zero lift (dimensionless)
  2.06318  Cn at stall value for positive angle of attack
  -0.8     Cn at stall value for negative angle of attack
  -4.09    Angle of attack for minimum CD (deg)
  0.00753531 Minimum CD value
  -180.00  0.00000  0.17269  0.00000
  -170.00  0.39940  0.21279  0.40000
  -160.00  0.79980  0.32791  -0.13888
  -150.00  0.71054  0.50356  -0.06215
  -140.00  0.65954  0.71729  -0.00695
  -130.00  0.58977  0.94195  0.04646
  -120.00  0.48377  1.14836  0.09869
  -110.00  0.34200  1.30944  0.14587
  -100.00  0.17500  1.40332  0.18320
   -90.00  0.00000  1.41600  0.20576
   -80.00  -0.17500  1.40332  0.22656
   -70.00  -0.34200  1.30944  0.23132
   -60.00  -0.48377  1.14836  0.22294
   -50.00  -0.58977  0.94195  0.20721
   -40.00  -0.65954  0.71729  0.19354
   -30.00  -0.71054  0.50356  0.19936
   -20.00  -0.79857  0.32763  0.27369
   -10.00  -0.27726  0.10500  0.06893
    -6.04  -0.09110  0.01692  -0.12405
    -5.04  0.01436  0.01094  -0.14241
    -4.09  0.10674  0.00754  -0.15323
    -3.02  0.22328  0.00759  -0.15463
    -2.02  0.33079  0.00765  -0.15544
    -1.03  0.43768  0.00772  -0.15613
    -0.01  0.54672  0.00790  -0.15712
     0.83  0.63963  0.00811  -0.15705
     1.67  0.72975  0.00838  -0.15744
     2.50  0.81877  0.00873  -0.15818
     3.33  0.90577  0.00905  -0.15752
     4.16  0.99102  0.00944  -0.15664
     5.00  1.07037  0.00983  -0.15483
     7.25  1.22043  0.01464  -0.14187
     9.50  1.31180  0.03043  -0.12911
    11.75  1.41060  0.04951  -0.12147
    14.00  1.44133  0.08402  -0.11491
    16.25  1.29443  0.20367  -0.12859
    18.50  1.22180  0.27570  -0.13850
    20.75  1.13697  0.34112  -0.16928
    23.00  1.10736  0.38068  -0.19153
    25.25  1.07775  0.42023  -0.21378
    27.50  1.04814  0.45978  -0.23603
    29.75  1.02008  0.50041  -0.25713
    32.00  1.00057  0.54650  -0.27274
    34.25  0.98420  0.59457  -0.28639
    36.50  0.96782  0.64263  -0.30005
    38.75  0.95144  0.69070  -0.31370
    41.00  0.93230  0.73988  -0.32632
    43.25  0.90967  0.79040  -0.33766
    45.50  0.88704  0.84092  -0.34901
    47.75  0.86440  0.89143  -0.36036
    50.00  0.84177  0.94195  -0.37170
    60.00  0.69077  1.14836  -0.41584
    70.00  0.48877  1.30944  -0.45329
    80.00  0.25000  1.40332  -0.48269
    90.00  0.00000  1.41600  -0.50224
   100.00  -0.17500  1.40332  -0.52302
   110.00  -0.34200  1.30944  -0.52780
   120.00  -0.48377  1.14836  -0.51941
   130.00  -0.58977  0.94195  -0.50369
   140.00  -0.65954  0.71729  -0.49001
   150.00  -0.71054  0.50356  -0.49582
   160.00  -0.79980  0.32791  -0.57057
   170.00  -0.39940  0.21279  -0.50000
   180.00  0.00000  0.17269  0.00000
EOT
