AeroDyn airfoil file.  Compatible with AeroDyn v13.0.
Interpolated thickness: 0.62

  1        Number of airfoil tables in this file
  9990     Reynolds number in millions.  For efficiency, make very large if only one table.
  0        Control setting
  10.7281  Stall angle (deg)
  -3.32857 Zero lift angle of attack (deg)
  3.45824  Cn slope for zero lift (dimensionless)
  0.848429 Cn at stall value for positive angle of attack
  -0.8     Cn at stall value for negative angle of attack
  -2.12    Angle of attack for minimum CD (deg)
  0.18025  Minimum CD value
  -180.00  0.00005  0.23045  -0.00005
  -170.00  0.19705  0.25100  0.19995
  -160.00  0.39455  0.30995  -0.07165
  -150.00  0.35455  0.40005  -0.03155
  -140.00  0.32905  0.51000  -0.00360
  -130.00  0.29455  0.62615  0.02345
  -120.00  0.24155  0.73375  0.05030
  -110.00  0.17105  0.81915  0.07520
  -100.00  0.08755  0.87130  0.09560
   -90.00  0.00005  0.88300  0.10900
   -80.00  -0.08745  0.87130  0.11890
   -70.00  -0.17095  0.81915  0.12070
   -60.00  -0.24145  0.73375  0.11605
   -50.00  -0.29445  0.62615  0.10795
   -40.00  -0.32895  0.51000  0.10135
   -30.00  -0.35445  0.40005  0.10530
   -20.00  -0.39345  0.30985  0.14370
   -10.00  -0.16095  0.22800  0.06350
    -4.17  -0.03595  0.18035  -0.06735
    -3.17  0.02105  0.18030  -0.06835
    -2.12  0.08005  0.18025  -0.06915
    -1.08  0.13955  0.18025  -0.07005
    -0.05  0.19855  0.18030  -0.07055
    -0.02  0.19869  0.18030  -0.07055
     1.16  0.26839  0.18041  -0.07119
     2.32  0.33403  0.18050  -0.07174
     3.48  0.39989  0.18067  -0.07212
     4.63  0.46368  0.18081  -0.07202
     5.79  0.52543  0.18099  -0.07157
     6.95  0.58398  0.18131  -0.07050
     8.11  0.63205  0.18165  -0.06755
    10.73  0.65390  0.18798  -0.05251
    13.35  0.57232  0.23224  -0.04850
    15.96  0.55265  0.25964  -0.05276
    18.58  0.56527  0.28693  -0.05937
    21.20  0.56213  0.32118  -0.07014
    23.82  0.54534  0.34479  -0.08382
    26.44  0.52856  0.36840  -0.09750
    29.06  0.51177  0.39200  -0.11119
    31.67  0.49985  0.41898  -0.12125
    34.29  0.49045  0.44769  -0.12945
    36.91  0.48105  0.47640  -0.13765
    39.53  0.47165  0.50511  -0.14585
    42.15  0.45933  0.53516  -0.15288
    44.76  0.44640  0.56549  -0.15967
    47.38  0.43348  0.59582  -0.16646
    50.00  0.42055  0.62615  -0.17325
    60.00  0.34505  0.73375  -0.19640
    70.00  0.24405  0.81915  -0.21655
    80.00  0.12505  0.87130  -0.23310
    90.00  0.00005  0.88300  -0.24500
   100.00  -0.08745  0.87130  -0.25485
   110.00  -0.17095  0.81915  -0.25670
   120.00  -0.24145  0.73375  -0.25200
   130.00  -0.29445  0.62615  -0.24395
   140.00  -0.32895  0.51000  -0.23730
   150.00  -0.35445  0.40005  -0.24125
   160.00  -0.39445  0.30995  -0.28005
   170.00  -0.19695  0.25100  -0.25005
   180.00  0.00005  0.23045  -0.00005
EOT
