AeroDyn airfoil file.  Compatible with AeroDyn v13.0.
Interpolated thickness: 0.789

  1        Number of airfoil tables in this file
  9990     Reynolds number in millions.  For efficiency, make very large if only one table.
  0        Control setting
  10.6823  Stall angle (deg)
  -3.05035 Zero lift angle of attack (deg)
  2.09186  Cn slope for zero lift (dimensionless)
  0.501375 Cn at stall value for positive angle of attack
  -0.8     Cn at stall value for negative angle of attack
  -2.12    Angle of attack for minimum CD (deg)
  0.255744 Minimum CD value
  -180.00  0.00007  0.28362  -0.00007
  -170.00  0.10946  0.29503  0.11098
  -160.00  0.21912  0.32776  -0.03983
  -150.00  0.19691  0.37779  -0.01756
  -140.00  0.18275  0.43884  -0.00204
  -130.00  0.16360  0.50334  0.01298
  -120.00  0.13417  0.56308  0.02789
  -110.00  0.09502  0.61050  0.04171
  -100.00  0.04866  0.63946  0.05304
   -90.00  0.00007  0.64596  0.06048
   -80.00  -0.04851  0.63946  0.06598
   -70.00  -0.09488  0.61050  0.06698
   -60.00  -0.13402  0.56308  0.06439
   -50.00  -0.16345  0.50334  0.05990
   -40.00  -0.18261  0.43884  0.05623
   -30.00  -0.19677  0.37779  0.05842
   -20.00  -0.21842  0.32771  0.07975
   -10.00  -0.08933  0.28226  0.03521
    -4.17  -0.01992  0.25580  -0.03744
    -3.17  0.01173  0.25577  -0.03800
    -2.12  0.04449  0.25574  -0.03844
    -1.08  0.07753  0.25574  -0.03894
    -0.05  0.11029  0.25577  -0.03922
    -0.01  0.11037  0.25577  -0.03922
     1.15  0.14907  0.25583  -0.03958
     2.30  0.18552  0.25588  -0.03988
     3.45  0.22209  0.25598  -0.04009
     4.61  0.25751  0.25605  -0.04004
     5.76  0.29180  0.25616  -0.03979
     6.91  0.32430  0.25633  -0.03919
     8.06  0.35100  0.25652  -0.03755
    10.68  0.36313  0.26004  -0.02920
    13.30  0.31783  0.28461  -0.02698
    15.92  0.30691  0.29982  -0.02934
    18.55  0.31392  0.31498  -0.03301
    21.17  0.31218  0.33400  -0.03899
    23.79  0.30285  0.34711  -0.04659
    26.41  0.29353  0.36021  -0.05418
    29.03  0.28421  0.37332  -0.06178
    31.65  0.27759  0.38830  -0.06737
    34.27  0.27237  0.40424  -0.07193
    36.89  0.26716  0.42018  -0.07648
    39.52  0.26194  0.43613  -0.08103
    42.14  0.25509  0.45281  -0.08493
    44.76  0.24791  0.46965  -0.08870
    47.38  0.24074  0.48649  -0.09247
    50.00  0.23356  0.50334  -0.09624
    60.00  0.19164  0.56308  -0.10910
    70.00  0.13556  0.61050  -0.12029
    80.00  0.06948  0.63946  -0.12948
    90.00  0.00007  0.64596  -0.13608
   100.00  -0.04851  0.63946  -0.14155
   110.00  -0.09488  0.61050  -0.14258
   120.00  -0.13402  0.56308  -0.13997
   130.00  -0.16345  0.50334  -0.13550
   140.00  -0.18261  0.43884  -0.13181
   150.00  -0.19677  0.37779  -0.13400
   160.00  -0.21898  0.32776  -0.15555
   170.00  -0.10931  0.29503  -0.13889
   180.00  0.00007  0.28362  -0.00007
EOT
