AeroDyn airfoil file.  Compatible with AeroDyn v13.0.
Interpolated thickness: 0.835

  1        Number of airfoil tables in this file
  9990     Reynolds number in millions.  For efficiency, make very large if only one table.
  0        Control setting
  10.6698  Stall angle (deg)
  -2.98583 Zero lift angle of attack (deg)
  1.69187  Cn slope for zero lift (dimensionless)
  0.403232 Cn at stall value for positive angle of attack
  -0.8     Cn at stall value for negative angle of attack
  -2.12    Angle of attack for minimum CD (deg)
  0.276293 Minimum CD value
  -180.00  0.00008  0.29809  -0.00008
  -170.00  0.08562  0.30701  0.08676
  -160.00  0.17137  0.33261  -0.03117
  -150.00  0.15401  0.37173  -0.01376
  -140.00  0.14293  0.41947  -0.00162
  -130.00  0.12795  0.46991  0.01013
  -120.00  0.10494  0.51663  0.02178
  -110.00  0.07433  0.55371  0.03260
  -100.00  0.03807  0.57635  0.04145
   -90.00  0.00008  0.58143  0.04727
   -80.00  -0.03792  0.57635  0.05157
   -70.00  -0.07417  0.55371  0.05235
   -60.00  -0.10478  0.51663  0.05033
   -50.00  -0.12780  0.46991  0.04682
   -40.00  -0.14278  0.41947  0.04395
   -30.00  -0.15385  0.37173  0.04567
   -20.00  -0.17078  0.33257  0.06234
   -10.00  -0.06983  0.29703  0.02752
    -4.17  -0.01555  0.27634  -0.02930
    -3.17  0.00920  0.27631  -0.02973
    -2.12  0.03482  0.27629  -0.03008
    -1.08  0.06065  0.27629  -0.03047
    -0.05  0.08627  0.27631  -0.03069
    -0.01  0.08633  0.27631  -0.03069
     1.15  0.11659  0.27636  -0.03097
     2.30  0.14510  0.27640  -0.03121
     3.45  0.17369  0.27647  -0.03137
     4.60  0.20139  0.27654  -0.03133
     5.75  0.22820  0.27662  -0.03114
     6.90  0.25363  0.27675  -0.03067
     8.05  0.27450  0.27690  -0.02939
    10.67  0.28399  0.27965  -0.02286
    13.29  0.24856  0.29887  -0.02112
    15.91  0.24003  0.31076  -0.02296
    18.54  0.24550  0.32261  -0.02583
    21.16  0.24414  0.33749  -0.03051
    23.78  0.23685  0.34774  -0.03645
    26.40  0.22956  0.35799  -0.04239
    29.02  0.22227  0.36824  -0.04833
    31.65  0.21710  0.37995  -0.05271
    34.27  0.21302  0.39242  -0.05627
    36.89  0.20893  0.40488  -0.05983
    39.51  0.20485  0.41735  -0.06339
    42.13  0.19950  0.43040  -0.06644
    44.76  0.19389  0.44357  -0.06939
    47.38  0.18828  0.45674  -0.07234
    50.00  0.18266  0.46991  -0.07528
    60.00  0.14988  0.51663  -0.08534
    70.00  0.10603  0.55371  -0.09408
    80.00  0.05435  0.57635  -0.10127
    90.00  0.00008  0.58143  -0.10644
   100.00  -0.03792  0.57635  -0.11072
   110.00  -0.07417  0.55371  -0.11152
   120.00  -0.10478  0.51663  -0.10948
   130.00  -0.12780  0.46991  -0.10598
   140.00  -0.14278  0.41947  -0.10309
   150.00  -0.15385  0.37173  -0.10481
   160.00  -0.17122  0.33261  -0.12166
   170.00  -0.08546  0.30701  -0.10863
   180.00  0.00008  0.29809  -0.00008
EOT
