AeroDyn airfoil file.  Compatible with AeroDyn v13.0.
Interpolated thickness: 0.5

  1        Number of airfoil tables in this file
  9990     Reynolds number in millions.  For efficiency, make very large if only one table.
  0        Control setting
  10.7607  Stall angle (deg)
  -3.43657 Zero lift angle of attack (deg)
  4.41321  Cn slope for zero lift (dimensionless)
  1.09354  Cn at stall value for positive angle of attack
  -0.8     Cn at stall value for negative angle of attack
  -2.12    Angle of attack for minimum CD (deg)
  0.126645 Minimum CD value
  -180.00  0.00003  0.19270  -0.00003
  -170.00  0.25924  0.21974  0.26312
  -160.00  0.51911  0.29730  -0.09424
  -150.00  0.46648  0.41586  -0.04148
  -140.00  0.43293  0.56053  -0.00471
  -130.00  0.38753  0.71336  0.03089
  -120.00  0.31780  0.85493  0.06622
  -110.00  0.22503  0.96730  0.09898
  -100.00  0.11517  1.03592  0.12582
   -90.00  0.00003  1.05132  0.14345
   -80.00  -0.11510  1.03592  0.15648
   -70.00  -0.22497  0.96730  0.15885
   -60.00  -0.31773  0.85493  0.15273
   -50.00  -0.38747  0.71336  0.14207
   -40.00  -0.43286  0.56053  0.13339
   -30.00  -0.46641  0.41586  0.13858
   -20.00  -0.51773  0.29717  0.18911
   -10.00  -0.21181  0.18947  0.08358
    -4.17  -0.04733  0.12678  -0.08859
    -3.17  0.02767  0.12671  -0.08990
    -2.12  0.10530  0.12664  -0.09096
    -1.08  0.18359  0.12664  -0.09214
    -0.05  0.26122  0.12671  -0.09280
    -0.03  0.26140  0.12671  -0.09280
     1.16  0.35311  0.12685  -0.09364
     2.33  0.43948  0.12697  -0.09437
     3.49  0.52614  0.12719  -0.09486
     4.65  0.61007  0.12738  -0.09474
     5.82  0.69132  0.12762  -0.09415
     6.98  0.76836  0.12804  -0.09274
     8.14  0.83161  0.12849  -0.08885
    10.76  0.86036  0.13682  -0.06906
    13.38  0.75302  0.19505  -0.06379
    15.99  0.72715  0.23110  -0.06938
    18.61  0.74374  0.26701  -0.07808
    21.22  0.73961  0.31208  -0.09226
    23.84  0.71753  0.34314  -0.11026
    26.46  0.69544  0.37421  -0.12826
    29.07  0.67335  0.40527  -0.14627
    31.69  0.65767  0.44076  -0.15951
    34.30  0.64530  0.47853  -0.17030
    36.92  0.63293  0.51631  -0.18109
    39.54  0.62056  0.55409  -0.19188
    42.15  0.60435  0.59363  -0.20113
    44.77  0.58734  0.63354  -0.21006
    47.38  0.57033  0.67345  -0.21900
    50.00  0.55332  0.71336  -0.22793
    60.00  0.45398  0.85493  -0.25839
    70.00  0.32109  0.96730  -0.28490
    80.00  0.16451  1.03592  -0.30668
    90.00  0.00003  1.05132  -0.32234
   100.00  -0.11510  1.03592  -0.33530
   110.00  -0.22497  0.96730  -0.33773
   120.00  -0.31773  0.85493  -0.33155
   130.00  -0.38747  0.71336  -0.32096
   140.00  -0.43286  0.56053  -0.31221
   150.00  -0.46641  0.41586  -0.31740
   160.00  -0.51904  0.29730  -0.36846
   170.00  -0.25918  0.21974  -0.32898
   180.00  0.00003  0.19270  -0.00003
EOT
