AeroDyn airfoil file.  Compatible with AeroDyn v13.0.
Interpolated thickness: 0.376

  1        Number of airfoil tables in this file
  9990     Reynolds number in millions.  For efficiency, make very large if only one table.
  0        Control setting
  10.7943  Stall angle (deg)
  -3.51855 Zero lift angle of attack (deg)
  5.38698  Cn slope for zero lift (dimensionless)
  1.3457   Cn at stall value for positive angle of attack
  -0.8     Cn at stall value for negative angle of attack
  -2.12    Angle of attack for minimum CD (deg)
  0.0712526 Minimum CD value
  -180.00  0.00002  0.15369  -0.00002
  -170.00  0.32351  0.18743  0.32840
  -160.00  0.64783  0.28423  -0.11759
  -150.00  0.58214  0.43219  -0.05174
  -140.00  0.54027  0.61274  -0.00585
  -130.00  0.48362  0.80347  0.03857
  -120.00  0.39659  0.98016  0.08266
  -110.00  0.28082  1.12039  0.12355
  -100.00  0.14370  1.20603  0.15705
   -90.00  0.00002  1.22524  0.17905
   -80.00  -0.14367  1.20603  0.19531
   -70.00  -0.28078  1.12039  0.19827
   -60.00  -0.39655  0.98016  0.19063
   -50.00  -0.48358  0.80347  0.17733
   -40.00  -0.54023  0.61274  0.16649
   -30.00  -0.58211  0.43219  0.17298
   -20.00  -0.64615  0.28407  0.23603
   -10.00  -0.26436  0.14966  0.10434
    -4.17  -0.05910  0.07142  -0.11053
    -3.17  0.03450  0.07133  -0.11217
    -2.12  0.13139  0.07125  -0.11349
    -1.08  0.22909  0.07125  -0.11497
    -0.05  0.32598  0.07133  -0.11579
    -0.04  0.32620  0.07134  -0.11579
     1.17  0.44065  0.07151  -0.11684
     2.34  0.54845  0.07166  -0.11774
     3.51  0.65660  0.07194  -0.11836
     4.67  0.76134  0.07217  -0.11821
     5.84  0.86274  0.07248  -0.11747
     7.01  0.95889  0.07299  -0.11571
     8.18  1.03783  0.07355  -0.11086
    10.79  1.07371  0.08395  -0.08616
    13.41  0.93974  0.15662  -0.07958
    16.02  0.90745  0.20161  -0.08657
    18.64  0.92816  0.24643  -0.09742
    21.25  0.92301  0.30267  -0.11511
    23.86  0.89545  0.34144  -0.13758
    26.48  0.86788  0.38021  -0.16005
    29.09  0.84032  0.41897  -0.18252
    31.70  0.82075  0.46326  -0.19905
    34.32  0.80531  0.51041  -0.21251
    36.93  0.78987  0.55756  -0.22598
    39.55  0.77444  0.60470  -0.23944
    42.16  0.75420  0.65405  -0.25098
    44.77  0.73297  0.70386  -0.26213
    47.39  0.71175  0.75366  -0.27328
    50.00  0.69052  0.80347  -0.28443
    60.00  0.56654  0.98016  -0.32245
    70.00  0.40069  1.12039  -0.35553
    80.00  0.20528  1.20603  -0.38271
    90.00  0.00002  1.22524  -0.40225
   100.00  -0.14367  1.20603  -0.41843
   110.00  -0.28078  1.12039  -0.42146
   120.00  -0.39655  0.98016  -0.41375
   130.00  -0.48358  0.80347  -0.40053
   140.00  -0.54023  0.61274  -0.38961
   150.00  -0.58211  0.43219  -0.39609
   160.00  -0.64779  0.28423  -0.45981
   170.00  -0.32348  0.18743  -0.41054
   180.00  0.00002  0.15369  -0.00002
EOT
