AeroDyn airfoil file.  Compatible with AeroDyn v13.0.
Interpolated thickness: 0.889

  1        Number of airfoil tables in this file
  9990     Reynolds number in millions.  For efficiency, make very large if only one table.
  0        Control setting
  10.6551  Stall angle (deg)
  -2.71055 Zero lift angle of attack (deg)
  1.25448  Cn slope for zero lift (dimensionless)
  0.29264  Cn at stall value for positive angle of attack
  -0.8     Cn at stall value for negative angle of attack
  -2.12    Angle of attack for minimum CD (deg)
  0.300415 Minimum CD value
  -180.00  0.00009  0.31508  -0.00009
  -170.00  0.05763  0.32108  0.05834
  -160.00  0.11532  0.33830  -0.02100
  -150.00  0.10364  0.36462  -0.00929
  -140.00  0.09619  0.39674  -0.00112
  -130.00  0.08611  0.43066  0.00678
  -120.00  0.07063  0.46210  0.01462
  -110.00  0.05004  0.48704  0.02190
  -100.00  0.02564  0.50227  0.02785
   -90.00  0.00009  0.50569  0.03177
   -80.00  -0.02547  0.50227  0.03466
   -70.00  -0.04986  0.48704  0.03519
   -60.00  -0.07046  0.46210  0.03383
   -50.00  -0.08594  0.43066  0.03146
   -40.00  -0.09602  0.39674  0.02953
   -30.00  -0.10347  0.36462  0.03069
   -20.00  -0.11486  0.33827  0.04190
   -10.00  -0.04694  0.31436  0.01848
    -4.17  -0.01043  0.30044  -0.01974
    -3.17  0.00622  0.30043  -0.02004
    -2.12  0.02345  0.30042  -0.02027
    -1.08  0.04083  0.30042  -0.02053
    -0.05  0.05807  0.30043  -0.02068
    -0.01  0.05811  0.30043  -0.02068
     1.15  0.07847  0.30046  -0.02087
     2.29  0.09764  0.30049  -0.02103
     3.44  0.11688  0.30054  -0.02114
     4.59  0.13551  0.30058  -0.02111
     5.74  0.15355  0.30063  -0.02098
     6.88  0.17065  0.30072  -0.02067
     8.03  0.18470  0.30082  -0.01980
    10.66  0.19108  0.30267  -0.01541
    13.28  0.16725  0.31560  -0.01424
    15.90  0.16150  0.32360  -0.01548
    18.52  0.16519  0.33158  -0.01741
    21.15  0.16427  0.34158  -0.02056
    23.77  0.15937  0.34848  -0.02456
    26.39  0.15447  0.35537  -0.02855
    29.02  0.14956  0.36227  -0.03255
    31.64  0.14608  0.37015  -0.03549
    34.26  0.14333  0.37853  -0.03788
    36.89  0.14059  0.38692  -0.04028
    39.51  0.13784  0.39531  -0.04268
    42.13  0.13424  0.40409  -0.04473
    44.75  0.13047  0.41295  -0.04671
    47.38  0.12669  0.42181  -0.04869
    50.00  0.12292  0.43066  -0.05068
    60.00  0.10086  0.46210  -0.05744
    70.00  0.07136  0.48704  -0.06333
    80.00  0.03660  0.50227  -0.06816
    90.00  0.00009  0.50569  -0.07164
   100.00  -0.02547  0.50227  -0.07451
   110.00  -0.04986  0.48704  -0.07505
   120.00  -0.07046  0.46210  -0.07368
   130.00  -0.08594  0.43066  -0.07133
   140.00  -0.09602  0.39674  -0.06939
   150.00  -0.10347  0.36462  -0.07054
   160.00  -0.11515  0.33830  -0.08187
   170.00  -0.05746  0.32108  -0.07311
   180.00  0.00009  0.31508  -0.00009
EOT
