AeroDyn airfoil file.  Compatible with AeroDyn v13.0.
Interpolated thickness: 0.792

  1        Number of airfoil tables in this file
  9990     Reynolds number in millions.  For efficiency, make very large if only one table.
  0        Control setting
  10.6814  Stall angle (deg)
  -3.04252 Zero lift angle of attack (deg)
  2.06737  Cn slope for zero lift (dimensionless)
  0.495194 Cn at stall value for positive angle of attack
  -0.8     Cn at stall value for negative angle of attack
  -2.12    Angle of attack for minimum CD (deg)
  0.257084 Minimum CD value
  -180.00  0.00007  0.28456  -0.00007
  -170.00  0.10790  0.29581  0.10940
  -160.00  0.21601  0.32808  -0.03926
  -150.00  0.19411  0.37740  -0.01731
  -140.00  0.18016  0.43758  -0.00202
  -130.00  0.16127  0.50116  0.01279
  -120.00  0.13226  0.56005  0.02749
  -110.00  0.09367  0.60680  0.04112
  -100.00  0.04797  0.63534  0.05228
   -90.00  0.00007  0.64175  0.05962
   -80.00  -0.04782  0.63534  0.06504
   -70.00  -0.09353  0.60680  0.06602
   -60.00  -0.13212  0.56005  0.06348
   -50.00  -0.16113  0.50116  0.05904
   -40.00  -0.18001  0.43758  0.05543
   -30.00  -0.19397  0.37740  0.05759
   -20.00  -0.21532  0.32802  0.07861
   -10.00  -0.08805  0.28322  0.03471
    -4.17  -0.01963  0.25714  -0.03691
    -3.17  0.01157  0.25711  -0.03746
    -2.12  0.04386  0.25708  -0.03790
    -1.08  0.07643  0.25708  -0.03839
    -0.05  0.10873  0.25711  -0.03866
    -0.01  0.10880  0.25711  -0.03866
     1.15  0.14695  0.25717  -0.03901
     2.30  0.18288  0.25722  -0.03931
     3.45  0.21893  0.25731  -0.03952
     4.61  0.25385  0.25739  -0.03947
     5.76  0.28765  0.25749  -0.03922
     6.91  0.31970  0.25766  -0.03864
     8.06  0.34601  0.25785  -0.03702
    10.68  0.35797  0.26132  -0.02879
    13.30  0.31331  0.28554  -0.02659
    15.92  0.30255  0.30054  -0.02892
    18.55  0.30945  0.31548  -0.03254
    21.17  0.30774  0.33422  -0.03844
    23.79  0.29855  0.34715  -0.04593
    26.41  0.28936  0.36007  -0.05342
    29.03  0.28017  0.37299  -0.06091
    31.65  0.27365  0.38775  -0.06642
    34.27  0.26850  0.40347  -0.07090
    36.89  0.26336  0.41919  -0.07539
    39.52  0.25821  0.43490  -0.07988
    42.14  0.25147  0.45135  -0.08373
    44.76  0.24439  0.46795  -0.08744
    47.38  0.23732  0.48455  -0.09116
    50.00  0.23024  0.50116  -0.09488
    60.00  0.18891  0.56005  -0.10755
    70.00  0.13363  0.60680  -0.11858
    80.00  0.06849  0.63534  -0.12764
    90.00  0.00007  0.64175  -0.13415
   100.00  -0.04782  0.63534  -0.13954
   110.00  -0.09353  0.60680  -0.14055
   120.00  -0.13212  0.56005  -0.13798
   130.00  -0.16113  0.50116  -0.13358
   140.00  -0.18001  0.43758  -0.12994
   150.00  -0.19397  0.37740  -0.13210
   160.00  -0.21586  0.32808  -0.15334
   170.00  -0.10776  0.29581  -0.13691
   180.00  0.00007  0.28456  -0.00007
EOT
