AeroDyn airfoil file.  Compatible with AeroDyn v13.0.
Interpolated thickness: 0.502

  1        Number of airfoil tables in this file
  9990     Reynolds number in millions.  For efficiency, make very large if only one table.
  0        Control setting
  10.7601  Stall angle (deg)
  -3.43506 Zero lift angle of attack (deg)
  4.3974   Cn slope for zero lift (dimensionless)
  1.08947  Cn at stall value for positive angle of attack
  -0.8     Cn at stall value for negative angle of attack
  -2.12    Angle of attack for minimum CD (deg)
  0.127538 Minimum CD value
  -180.00  0.00003  0.19333  -0.00003
  -170.00  0.25821  0.22026  0.26207
  -160.00  0.51704  0.29751  -0.09387
  -150.00  0.46462  0.41559  -0.04132
  -140.00  0.43120  0.55968  -0.00469
  -130.00  0.38598  0.71190  0.03076
  -120.00  0.31653  0.85291  0.06595
  -110.00  0.22413  0.96483  0.09858
  -100.00  0.11471  1.03318  0.12532
   -90.00  0.00003  1.04851  0.14288
   -80.00  -0.11464  1.03318  0.15585
   -70.00  -0.22407  0.96483  0.15821
   -60.00  -0.31646  0.85291  0.15212
   -50.00  -0.38592  0.71190  0.14150
   -40.00  -0.43113  0.55968  0.13285
   -30.00  -0.46455  0.41559  0.13803
   -20.00  -0.51566  0.29738  0.18835
   -10.00  -0.21096  0.19012  0.08325
    -4.17  -0.04714  0.12767  -0.08823
    -3.17  0.02756  0.12760  -0.08954
    -2.12  0.10488  0.12754  -0.09059
    -1.08  0.18285  0.12754  -0.09177
    -0.05  0.26017  0.12760  -0.09243
    -0.03  0.26035  0.12760  -0.09243
     1.16  0.35169  0.12775  -0.09327
     2.33  0.43773  0.12786  -0.09399
     3.49  0.52403  0.12809  -0.09448
     4.65  0.60763  0.12827  -0.09436
     5.82  0.68856  0.12851  -0.09377
     6.98  0.76528  0.12892  -0.09237
     8.14  0.82829  0.12937  -0.08850
    10.76  0.85692  0.13767  -0.06878
    13.38  0.75001  0.19567  -0.06353
    15.99  0.72424  0.23158  -0.06911
    18.61  0.74077  0.26734  -0.07777
    21.22  0.73666  0.31223  -0.09189
    23.84  0.71466  0.34317  -0.10982
    26.46  0.69266  0.37411  -0.12775
    29.07  0.67066  0.40505  -0.14568
    31.69  0.65504  0.44039  -0.15888
    34.30  0.64272  0.47802  -0.16962
    36.92  0.63040  0.51565  -0.18037
    39.54  0.61808  0.55327  -0.19111
    42.15  0.60193  0.59266  -0.20033
    44.77  0.58499  0.63241  -0.20922
    47.38  0.56805  0.67215  -0.21812
    50.00  0.55111  0.71190  -0.22702
    60.00  0.45217  0.85291  -0.25736
    70.00  0.31980  0.96483  -0.28376
    80.00  0.16385  1.03318  -0.30545
    90.00  0.00003  1.04851  -0.32105
   100.00  -0.11464  1.03318  -0.33396
   110.00  -0.22407  0.96483  -0.33638
   120.00  -0.31646  0.85291  -0.33022
   130.00  -0.38592  0.71190  -0.31967
   140.00  -0.43113  0.55968  -0.31096
   150.00  -0.46455  0.41559  -0.31613
   160.00  -0.51697  0.29751  -0.36698
   170.00  -0.25814  0.22026  -0.32767
   180.00  0.00003  0.19333  -0.00003
EOT
