AeroDyn airfoil file.  Compatible with AeroDyn v13.0.
Interpolated thickness: 0.58

  1        Number of airfoil tables in this file
  9990     Reynolds number in millions.  For efficiency, make very large if only one table.
  0        Control setting
  10.739   Stall angle (deg)
  -3.36909 Zero lift angle of attack (deg)
  3.77796  Cn slope for zero lift (dimensionless)
  0.930255 Cn at stall value for positive angle of attack
  -0.8     Cn at stall value for negative angle of attack
  -2.12    Angle of attack for minimum CD (deg)
  0.162382 Minimum CD value
  -180.00  0.00004  0.21787  -0.00004
  -170.00  0.21778  0.24058  0.22101
  -160.00  0.43607  0.30573  -0.07918
  -150.00  0.39186  0.40532  -0.03486
  -140.00  0.36368  0.52684  -0.00397
  -130.00  0.32554  0.65522  0.02593
  -120.00  0.26697  0.77414  0.05561
  -110.00  0.18904  0.86853  0.08313
  -100.00  0.09676  0.92617  0.10567
   -90.00  0.00004  0.93911  0.12048
   -80.00  -0.09667  0.92617  0.13143
   -70.00  -0.18896  0.86853  0.13342
   -60.00  -0.26688  0.77414  0.12828
   -50.00  -0.32546  0.65522  0.11932
   -40.00  -0.36359  0.52684  0.11203
   -30.00  -0.39177  0.40532  0.11639
   -20.00  -0.43488  0.30562  0.15884
   -10.00  -0.17790  0.21516  0.07019
    -4.17  -0.03974  0.16249  -0.07443
    -3.17  0.02326  0.16244  -0.07553
    -2.12  0.08847  0.16238  -0.07642
    -1.08  0.15423  0.16238  -0.07741
    -0.05  0.21944  0.16244  -0.07797
    -0.03  0.21959  0.16244  -0.07797
     1.16  0.29663  0.16256  -0.07868
     2.32  0.36918  0.16266  -0.07928
     3.48  0.44197  0.16284  -0.07970
     4.64  0.51247  0.16300  -0.07959
     5.80  0.58073  0.16320  -0.07910
     6.96  0.64544  0.16355  -0.07792
     8.12  0.69857  0.16393  -0.07465
    10.74  0.72272  0.17093  -0.05803
    13.36  0.63255  0.21984  -0.05360
    15.97  0.61082  0.25013  -0.05830
    18.59  0.62476  0.28029  -0.06561
    21.21  0.62129  0.31815  -0.07751
    23.83  0.60274  0.34424  -0.09263
    26.44  0.58419  0.37033  -0.10776
    29.06  0.56563  0.39643  -0.12288
    31.68  0.55246  0.42624  -0.13401
    34.30  0.54207  0.45797  -0.14307
    36.91  0.53168  0.48970  -0.15213
    39.53  0.52129  0.52143  -0.16120
    42.15  0.50767  0.55465  -0.16896
    44.77  0.49338  0.58817  -0.17647
    47.38  0.47909  0.62170  -0.18397
    50.00  0.46481  0.65522  -0.19148
    60.00  0.38136  0.77414  -0.21706
    70.00  0.26973  0.86853  -0.23933
    80.00  0.13820  0.92617  -0.25763
    90.00  0.00004  0.93911  -0.27078
   100.00  -0.09667  0.92617  -0.28167
   110.00  -0.18896  0.86853  -0.28371
   120.00  -0.26688  0.77414  -0.27852
   130.00  -0.32546  0.65522  -0.26962
   140.00  -0.36359  0.52684  -0.26227
   150.00  -0.39177  0.40532  -0.26663
   160.00  -0.43598  0.30573  -0.30952
   170.00  -0.21769  0.24058  -0.27636
   180.00  0.00004  0.21787  -0.00004
EOT
