AeroDyn airfoil file.  Compatible with AeroDyn v13.0.
Interpolated thickness: 0.597

  1        Number of airfoil tables in this file
  9990     Reynolds number in millions.  For efficiency, make very large if only one table.
  0        Control setting
  10.7344  Stall angle (deg)
  -3.35254 Zero lift angle of attack (deg)
  3.64225  Cn slope for zero lift (dimensionless)
  0.895494 Cn at stall value for positive angle of attack
  -0.8     Cn at stall value for negative angle of attack
  -2.12    Angle of attack for minimum CD (deg)
  0.169976 Minimum CD value
  -180.00  0.00005  0.22321  -0.00005
  -170.00  0.20897  0.24501  0.21206
  -160.00  0.41842  0.30753  -0.07598
  -150.00  0.37600  0.40308  -0.03345
  -140.00  0.34896  0.51968  -0.00381
  -130.00  0.31237  0.64286  0.02488
  -120.00  0.25616  0.75698  0.05335
  -110.00  0.18140  0.84755  0.07976
  -100.00  0.09284  0.90285  0.10139
   -90.00  0.00005  0.91526  0.11560
   -80.00  -0.09275  0.90285  0.12610
   -70.00  -0.18130  0.84755  0.12801
   -60.00  -0.25607  0.75698  0.12308
   -50.00  -0.31228  0.64286  0.11449
   -40.00  -0.34887  0.51968  0.10749
   -30.00  -0.37591  0.40308  0.11168
   -20.00  -0.41727  0.30742  0.15240
   -10.00  -0.17070  0.22062  0.06735
    -4.17  -0.03813  0.17008  -0.07142
    -3.17  0.02232  0.17003  -0.07248
    -2.12  0.08489  0.16998  -0.07333
    -1.08  0.14799  0.16998  -0.07428
    -0.05  0.21056  0.17003  -0.07481
    -0.03  0.21071  0.17003  -0.07482
     1.16  0.28462  0.17014  -0.07550
     2.32  0.35424  0.17024  -0.07608
     3.48  0.42409  0.17042  -0.07648
     4.64  0.49173  0.17057  -0.07638
     5.80  0.55722  0.17077  -0.07590
     6.96  0.61932  0.17110  -0.07477
     8.12  0.67030  0.17146  -0.07163
    10.73  0.69347  0.17818  -0.05568
    13.35  0.60695  0.22511  -0.05143
    15.97  0.58610  0.25417  -0.05594
    18.59  0.59947  0.28311  -0.06296
    21.21  0.59615  0.31944  -0.07438
    23.82  0.57835  0.34447  -0.08889
    26.44  0.56054  0.36951  -0.10340
    29.06  0.54274  0.39455  -0.11791
    31.68  0.53010  0.42315  -0.12859
    34.29  0.52013  0.45360  -0.13728
    36.91  0.51016  0.48405  -0.14598
    39.53  0.50019  0.51450  -0.15467
    42.15  0.48712  0.54637  -0.16213
    44.76  0.47341  0.57853  -0.16933
    47.38  0.45971  0.61070  -0.17653
    50.00  0.44600  0.64286  -0.18373
    60.00  0.36593  0.75698  -0.20828
    70.00  0.25882  0.84755  -0.22965
    80.00  0.13261  0.90285  -0.24720
    90.00  0.00005  0.91526  -0.25982
   100.00  -0.09275  0.90285  -0.27027
   110.00  -0.18130  0.84755  -0.27223
   120.00  -0.25607  0.75698  -0.26725
   130.00  -0.31228  0.64286  -0.25871
   140.00  -0.34887  0.51968  -0.25166
   150.00  -0.37591  0.40308  -0.25585
   160.00  -0.41833  0.30753  -0.29699
   170.00  -0.20888  0.24501  -0.26518
   180.00  0.00005  0.22321  -0.00005
EOT
