AeroDyn airfoil file.  Compatible with AeroDyn v13.0.
Interpolated thickness: 0.958

  1        Number of airfoil tables in this file
  9990     Reynolds number in millions.  For efficiency, make very large if only one table.
  0        Control setting
  10.6364  Stall angle (deg)
  -1.86217 Zero lift angle of attack (deg)
  0.692956 Cn slope for zero lift (dimensionless)
  0.151162 Cn at stall value for positive angle of attack
  -0.8     Cn at stall value for negative angle of attack
  -2.12    Angle of attack for minimum CD (deg)
  0.331238 Minimum CD value
  -180.00  0.00009  0.33679  -0.00009
  -170.00  0.02187  0.33906  0.02201
  -160.00  0.04370  0.34557  -0.00801
  -150.00  0.03928  0.35553  -0.00358
  -140.00  0.03646  0.36768  -0.00049
  -130.00  0.03264  0.38052  0.00250
  -120.00  0.02679  0.39241  0.00547
  -110.00  0.01899  0.40185  0.00822
  -100.00  0.00977  0.40762  0.01048
   -90.00  0.00009  0.40891  0.01196
   -80.00  -0.00958  0.40762  0.01305
   -70.00  -0.01881  0.40185  0.01325
   -60.00  -0.02660  0.39241  0.01274
   -50.00  -0.03246  0.38052  0.01184
   -40.00  -0.03627  0.36768  0.01111
   -30.00  -0.03909  0.35553  0.01155
   -20.00  -0.04340  0.34556  0.01579
   -10.00  -0.01770  0.33652  0.00693
    -4.17  -0.00388  0.33125  -0.00753
    -3.17  0.00242  0.33124  -0.00764
    -2.12  0.00894  0.33124  -0.00773
    -1.08  0.01551  0.33124  -0.00783
    -0.05  0.02203  0.33124  -0.00789
    -0.00  0.02205  0.33124  -0.00789
     1.14  0.02975  0.33126  -0.00796
     2.29  0.03701  0.33127  -0.00802
     3.43  0.04429  0.33128  -0.00806
     4.58  0.05134  0.33130  -0.00805
     5.72  0.05816  0.33132  -0.00800
     6.87  0.06463  0.33136  -0.00788
     8.01  0.06995  0.33139  -0.00756
    10.64  0.07236  0.33209  -0.00589
    13.26  0.06335  0.33698  -0.00545
    15.88  0.06117  0.34001  -0.00592
    18.51  0.06257  0.34303  -0.00665
    21.13  0.06222  0.34681  -0.00784
    23.76  0.06036  0.34942  -0.00935
    26.38  0.05851  0.35203  -0.01087
    29.01  0.05665  0.35464  -0.01238
    31.63  0.05534  0.35762  -0.01349
    34.25  0.05430  0.36080  -0.01440
    36.88  0.05326  0.36397  -0.01530
    39.50  0.05222  0.36714  -0.01621
    42.13  0.05086  0.37047  -0.01699
    44.75  0.04943  0.37382  -0.01774
    47.38  0.04800  0.37717  -0.01849
    50.00  0.04657  0.38052  -0.01924
    60.00  0.03823  0.39241  -0.02180
    70.00  0.02706  0.40185  -0.02402
    80.00  0.01391  0.40762  -0.02585
    90.00  0.00009  0.40891  -0.02717
   100.00  -0.00958  0.40762  -0.02826
   110.00  -0.01881  0.40185  -0.02846
   120.00  -0.02660  0.39241  -0.02794
   130.00  -0.03246  0.38052  -0.02705
   140.00  -0.03627  0.36768  -0.02632
   150.00  -0.03909  0.35553  -0.02675
   160.00  -0.04351  0.34557  -0.03104
   170.00  -0.02168  0.33906  -0.02773
   180.00  0.00009  0.33679  -0.00009
EOT
