AeroDyn airfoil file.  Compatible with AeroDyn v13.0.
Interpolated thickness: 0.443

  1        Number of airfoil tables in this file
  9990     Reynolds number in millions.  For efficiency, make very large if only one table.
  0        Control setting
  10.7762  Stall angle (deg)
  -3.47689 Zero lift angle of attack (deg)
  4.86246  Cn slope for zero lift (dimensionless)
  1.2096   Cn at stall value for positive angle of attack
  -0.8     Cn at stall value for negative angle of attack
  -2.12    Angle of attack for minimum CD (deg)
  0.101182 Minimum CD value
  -180.00  0.00003  0.17476  -0.00003
  -170.00  0.28879  0.20489  0.29313
  -160.00  0.57828  0.29130  -0.10498
  -150.00  0.51965  0.42336  -0.04620
  -140.00  0.48227  0.58453  -0.00523
  -130.00  0.43170  0.75478  0.03442
  -120.00  0.35401  0.91250  0.07378
  -110.00  0.25068  1.03768  0.11027
  -100.00  0.12828  1.11412  0.14018
   -90.00  0.00003  1.13127  0.15982
   -80.00  -0.12823  1.11412  0.17433
   -70.00  -0.25062  1.03768  0.17697
   -60.00  -0.35396  0.91250  0.17015
   -50.00  -0.43165  0.75478  0.15828
   -40.00  -0.48222  0.58453  0.14860
   -30.00  -0.51960  0.42336  0.15439
   -20.00  -0.57676  0.29115  0.21068
   -10.00  -0.23597  0.17117  0.09312
    -4.17  -0.05274  0.10133  -0.09867
    -3.17  0.03081  0.10126  -0.10014
    -2.12  0.11729  0.10118  -0.10131
    -1.08  0.20450  0.10118  -0.10263
    -0.05  0.29099  0.10126  -0.10336
    -0.03  0.29119  0.10126  -0.10337
     1.17  0.39335  0.10142  -0.10431
     2.33  0.48957  0.10154  -0.10511
     3.50  0.58611  0.10179  -0.10566
     4.66  0.67960  0.10200  -0.10552
     5.83  0.77012  0.10227  -0.10487
     7.00  0.85594  0.10273  -0.10330
     8.16  0.92641  0.10323  -0.09897
    10.78  0.95843  0.11252  -0.07692
    13.39  0.83885  0.17739  -0.07105
    16.01  0.81003  0.21755  -0.07728
    18.62  0.82852  0.25755  -0.08697
    21.24  0.82392  0.30776  -0.10276
    23.85  0.79931  0.34236  -0.12282
    26.47  0.77471  0.37696  -0.14287
    29.08  0.75010  0.41157  -0.16293
    31.70  0.73263  0.45110  -0.17769
    34.31  0.71885  0.49319  -0.18971
    36.93  0.70508  0.53527  -0.20172
    39.54  0.69130  0.57735  -0.21374
    42.16  0.67323  0.62141  -0.22405
    44.77  0.65428  0.66586  -0.23400
    47.39  0.63534  0.71032  -0.24395
    50.00  0.61639  0.75478  -0.25390
    60.00  0.50572  0.91250  -0.28783
    70.00  0.35768  1.03768  -0.31737
    80.00  0.18325  1.11412  -0.34163
    90.00  0.00003  1.13127  -0.35907
   100.00  -0.12823  1.11412  -0.37351
   110.00  -0.25062  1.03768  -0.37622
   120.00  -0.35396  0.91250  -0.36933
   130.00  -0.43165  0.75478  -0.35753
   140.00  -0.48222  0.58453  -0.34779
   150.00  -0.51960  0.42336  -0.35358
   160.00  -0.57823  0.29130  -0.41045
   170.00  -0.28873  0.20489  -0.36647
   180.00  0.00003  0.17476  -0.00003
EOT
