AeroDyn airfoil file.  Compatible with AeroDyn v13.0.
Interpolated thickness: 0.88

  1        Number of airfoil tables in this file
  9990     Reynolds number in millions.  For efficiency, make very large if only one table.
  0        Control setting
  10.6576  Stall angle (deg)
  -2.76877 Zero lift angle of attack (deg)
  1.32751  Cn slope for zero lift (dimensionless)
  0.31108  Cn at stall value for positive angle of attack
  -0.8     Cn at stall value for negative angle of attack
  -2.12    Angle of attack for minimum CD (deg)
  0.296395 Minimum CD value
  -180.00  0.00008  0.31225  -0.00008
  -170.00  0.06229  0.31874  0.06307
  -160.00  0.12466  0.33735  -0.02269
  -150.00  0.11203  0.36581  -0.01003
  -140.00  0.10398  0.40053  -0.00121
  -130.00  0.09308  0.43721  0.00734
  -120.00  0.07635  0.47118  0.01582
  -110.00  0.05408  0.49815  0.02368
  -100.00  0.02772  0.51462  0.03012
   -90.00  0.00008  0.51832  0.03435
   -80.00  -0.02755  0.51462  0.03748
   -70.00  -0.05392  0.49815  0.03805
   -60.00  -0.07618  0.47118  0.03658
   -50.00  -0.09292  0.43721  0.03402
   -40.00  -0.10381  0.40053  0.03194
   -30.00  -0.11186  0.36581  0.03318
   -20.00  -0.12418  0.33732  0.04531
   -10.00  -0.05076  0.31147  0.01998
    -4.17  -0.01128  0.29643  -0.02134
    -3.17  0.00672  0.29641  -0.02165
    -2.12  0.02535  0.29639  -0.02191
    -1.08  0.04414  0.29639  -0.02219
    -0.05  0.06277  0.29641  -0.02235
    -0.01  0.06281  0.29641  -0.02235
     1.15  0.08482  0.29645  -0.02255
     2.30  0.10555  0.29647  -0.02272
     3.44  0.12635  0.29653  -0.02284
     4.59  0.14649  0.29657  -0.02281
     5.74  0.16599  0.29663  -0.02267
     6.89  0.18448  0.29673  -0.02233
     8.03  0.19966  0.29684  -0.02140
    10.66  0.20656  0.29884  -0.01665
    13.28  0.18080  0.31281  -0.01538
    15.90  0.17459  0.32146  -0.01673
    18.53  0.17857  0.33008  -0.01882
    21.15  0.17758  0.34090  -0.02222
    23.77  0.17228  0.34835  -0.02654
    26.39  0.16698  0.35581  -0.03086
    29.02  0.16168  0.36326  -0.03518
    31.64  0.15792  0.37178  -0.03836
    34.26  0.15495  0.38085  -0.04095
    36.89  0.15198  0.38991  -0.04354
    39.51  0.14901  0.39898  -0.04613
    42.13  0.14512  0.40847  -0.04835
    44.75  0.14104  0.41805  -0.05049
    47.38  0.13696  0.42763  -0.05263
    50.00  0.13287  0.43721  -0.05478
    60.00  0.10903  0.47118  -0.06209
    70.00  0.07714  0.49815  -0.06845
    80.00  0.03956  0.51462  -0.07368
    90.00  0.00008  0.51832  -0.07744
   100.00  -0.02755  0.51462  -0.08055
   110.00  -0.05392  0.49815  -0.08113
   120.00  -0.07618  0.47118  -0.07965
   130.00  -0.09292  0.43721  -0.07711
   140.00  -0.10381  0.40053  -0.07501
   150.00  -0.11186  0.36581  -0.07625
   160.00  -0.12449  0.33735  -0.08851
   170.00  -0.06213  0.31874  -0.07903
   180.00  0.00008  0.31225  -0.00008
EOT
