AeroDyn airfoil file.  Compatible with AeroDyn v13.0.
Interpolated thickness: 0.976

  1        Number of airfoil tables in this file
  9990     Reynolds number in millions.  For efficiency, make very large if only one table.
  0        Control setting
  10.6315  Stall angle (deg)
  -1.35534 Zero lift angle of attack (deg)
  0.54598  Cn slope for zero lift (dimensionless)
  0.114225 Cn at stall value for positive angle of attack
  -0.8     Cn at stall value for negative angle of attack
  -2.12    Angle of attack for minimum CD (deg)
  0.339279 Minimum CD value
  -180.00  0.00010  0.34245  -0.00010
  -170.00  0.01254  0.34375  0.01253
  -160.00  0.02501  0.34747  -0.00462
  -150.00  0.02249  0.35316  -0.00209
  -140.00  0.02088  0.36011  -0.00032
  -130.00  0.01870  0.36744  0.00139
  -120.00  0.01535  0.37424  0.00308
  -110.00  0.01090  0.37963  0.00466
  -100.00  0.00562  0.38292  0.00594
   -90.00  0.00010  0.38366  0.00679
   -80.00  -0.00543  0.38292  0.00742
   -70.00  -0.01070  0.37963  0.00753
   -60.00  -0.01516  0.37424  0.00724
   -50.00  -0.01850  0.36744  0.00672
   -40.00  -0.02068  0.36011  0.00631
   -30.00  -0.02229  0.35316  0.00656
   -20.00  -0.02476  0.34746  0.00898
   -10.00  -0.01007  0.34229  0.00392
    -4.17  -0.00218  0.33929  -0.00435
    -3.17  0.00142  0.33928  -0.00441
    -2.12  0.00515  0.33928  -0.00446
    -1.08  0.00891  0.33928  -0.00452
    -0.05  0.01263  0.33928  -0.00455
    -0.00  0.01264  0.33928  -0.00455
     1.14  0.01704  0.33929  -0.00459
     2.29  0.02119  0.33929  -0.00462
     3.43  0.02535  0.33931  -0.00465
     4.58  0.02938  0.33931  -0.00464
     5.72  0.03328  0.33933  -0.00461
     6.86  0.03698  0.33935  -0.00455
     8.01  0.04001  0.33937  -0.00436
    10.63  0.04139  0.33977  -0.00341
    13.26  0.03624  0.34256  -0.00316
    15.88  0.03500  0.34429  -0.00343
    18.51  0.03579  0.34602  -0.00384
    21.13  0.03560  0.34818  -0.00452
    23.75  0.03454  0.34967  -0.00539
    26.38  0.03348  0.35116  -0.00625
    29.00  0.03242  0.35265  -0.00712
    31.63  0.03166  0.35436  -0.00775
    34.25  0.03107  0.35617  -0.00827
    36.88  0.03048  0.35798  -0.00879
    39.50  0.02988  0.35980  -0.00931
    42.13  0.02910  0.36169  -0.00975
    44.75  0.02829  0.36361  -0.01018
    47.38  0.02747  0.36553  -0.01061
    50.00  0.02665  0.36744  -0.01104
    60.00  0.02189  0.37424  -0.01250
    70.00  0.01551  0.37963  -0.01377
    80.00  0.00799  0.38292  -0.01482
    90.00  0.00010  0.38366  -0.01557
   100.00  -0.00543  0.38292  -0.01619
   110.00  -0.01070  0.37963  -0.01631
   120.00  -0.01516  0.37424  -0.01601
   130.00  -0.01850  0.36744  -0.01550
   140.00  -0.02068  0.36011  -0.01508
   150.00  -0.02229  0.35316  -0.01533
   160.00  -0.02482  0.34747  -0.01778
   170.00  -0.01235  0.34375  -0.01589
   180.00  0.00010  0.34245  -0.00010
EOT
