AeroDyn airfoil file.  Compatible with AeroDyn v13.0.
Interpolated thickness: 0.624

  1        Number of airfoil tables in this file
  9990     Reynolds number in millions.  For efficiency, make very large if only one table.
  0        Control setting
  10.727   Stall angle (deg)
  -3.32419 Zero lift angle of attack (deg)
  3.42619  Cn slope for zero lift (dimensionless)
  0.84024  Cn at stall value for positive angle of attack
  -0.8     Cn at stall value for negative angle of attack
  -2.12    Angle of attack for minimum CD (deg)
  0.182037 Minimum CD value
  -180.00  0.00005  0.23171  -0.00005
  -170.00  0.19498  0.25204  0.19784
  -160.00  0.39040  0.31037  -0.07090
  -150.00  0.35082  0.39952  -0.03122
  -140.00  0.32559  0.50832  -0.00356
  -130.00  0.29145  0.62324  0.02320
  -120.00  0.23901  0.72971  0.04977
  -110.00  0.16925  0.81421  0.07441
  -100.00  0.08663  0.86581  0.09459
   -90.00  0.00005  0.87739  0.10785
   -80.00  -0.08653  0.86581  0.11765
   -70.00  -0.16915  0.81421  0.11943
   -60.00  -0.23891  0.72971  0.11483
   -50.00  -0.29135  0.62324  0.10681
   -40.00  -0.32549  0.50832  0.10028
   -30.00  -0.35072  0.39952  0.10419
   -20.00  -0.38931  0.31027  0.14219
   -10.00  -0.15925  0.22928  0.06283
    -4.17  -0.03557  0.18214  -0.06664
    -3.17  0.02083  0.18209  -0.06763
    -2.12  0.07921  0.18204  -0.06842
    -1.08  0.13808  0.18204  -0.06931
    -0.05  0.19646  0.18209  -0.06981
    -0.02  0.19660  0.18209  -0.06981
     1.16  0.26556  0.18219  -0.07045
     2.32  0.33052  0.18228  -0.07099
     3.48  0.39568  0.18245  -0.07136
     4.63  0.45880  0.18259  -0.07127
     5.79  0.51990  0.18277  -0.07082
     6.95  0.57783  0.18308  -0.06976
     8.11  0.62540  0.18342  -0.06684
    10.73  0.64702  0.18969  -0.05196
    13.35  0.56630  0.23348  -0.04799
    15.96  0.54684  0.26059  -0.05220
    18.58  0.55932  0.28759  -0.05874
    21.20  0.55622  0.32148  -0.06940
    23.82  0.53961  0.34484  -0.08294
    26.44  0.52300  0.36820  -0.09648
    29.05  0.50639  0.39156  -0.11002
    31.67  0.49459  0.41825  -0.11998
    34.29  0.48529  0.44666  -0.12809
    36.91  0.47599  0.47507  -0.13621
    39.53  0.46669  0.50347  -0.14432
    42.15  0.45449  0.53321  -0.15127
    44.76  0.44170  0.56322  -0.15799
    47.38  0.42891  0.59323  -0.16471
    50.00  0.41612  0.62324  -0.17143
    60.00  0.34142  0.72971  -0.19433
    70.00  0.24148  0.81421  -0.21427
    80.00  0.12373  0.86581  -0.23065
    90.00  0.00005  0.87739  -0.24242
   100.00  -0.08653  0.86581  -0.25217
   110.00  -0.16915  0.81421  -0.25400
   120.00  -0.23891  0.72971  -0.24935
   130.00  -0.29135  0.62324  -0.24138
   140.00  -0.32549  0.50832  -0.23480
   150.00  -0.35072  0.39952  -0.23871
   160.00  -0.39030  0.31037  -0.27710
   170.00  -0.19488  0.25204  -0.24742
   180.00  0.00005  0.23171  -0.00005
EOT
