AeroDyn airfoil file.  Compatible with AeroDyn v13.0.
Interpolated thickness: 0.623

  1        Number of airfoil tables in this file
  9990     Reynolds number in millions.  For efficiency, make very large if only one table.
  0        Control setting
  10.7273  Stall angle (deg)
  -3.32529 Zero lift angle of attack (deg)
  3.4342   Cn slope for zero lift (dimensionless)
  0.842287 Cn at stall value for positive angle of attack
  -0.8     Cn at stall value for negative angle of attack
  -2.12    Angle of attack for minimum CD (deg)
  0.18159  Minimum CD value
  -180.00  0.00005  0.23139  -0.00005
  -170.00  0.19550  0.25178  0.19837
  -160.00  0.39144  0.31027  -0.07109
  -150.00  0.35175  0.39965  -0.03130
  -140.00  0.32645  0.50874  -0.00357
  -130.00  0.29223  0.62397  0.02326
  -120.00  0.23964  0.73072  0.04990
  -110.00  0.16970  0.81545  0.07461
  -100.00  0.08686  0.86718  0.09484
   -90.00  0.00005  0.87879  0.10814
   -80.00  -0.08676  0.86718  0.11796
   -70.00  -0.16960  0.81545  0.11975
   -60.00  -0.23954  0.73072  0.11513
   -50.00  -0.29212  0.62397  0.10710
   -40.00  -0.32635  0.50874  0.10055
   -30.00  -0.35165  0.39965  0.10447
   -20.00  -0.39034  0.31017  0.14256
   -10.00  -0.15968  0.22896  0.06300
    -4.17  -0.03567  0.18169  -0.06682
    -3.17  0.02088  0.18164  -0.06781
    -2.12  0.07942  0.18159  -0.06860
    -1.08  0.13845  0.18159  -0.06950
    -0.05  0.19698  0.18164  -0.06999
    -0.02  0.19712  0.18164  -0.07000
     1.16  0.26627  0.18175  -0.07063
     2.32  0.33140  0.18184  -0.07118
     3.48  0.39673  0.18200  -0.07155
     4.63  0.46002  0.18214  -0.07146
     5.79  0.52128  0.18233  -0.07101
     6.95  0.57937  0.18264  -0.06995
     8.11  0.62706  0.18298  -0.06702
    10.73  0.64874  0.18926  -0.05210
    13.35  0.56780  0.23317  -0.04812
    15.96  0.54829  0.26035  -0.05234
    18.58  0.56081  0.28742  -0.05890
    21.20  0.55769  0.32141  -0.06959
    23.82  0.54104  0.34483  -0.08316
    26.44  0.52439  0.36825  -0.09674
    29.05  0.50773  0.39167  -0.11031
    31.67  0.49591  0.41843  -0.12030
    34.29  0.48658  0.44691  -0.12843
    36.91  0.47726  0.47540  -0.13657
    39.53  0.46793  0.50388  -0.14470
    42.15  0.45570  0.53370  -0.15168
    44.76  0.44288  0.56379  -0.15841
    47.38  0.43005  0.59388  -0.16515
    50.00  0.41723  0.62397  -0.17188
    60.00  0.34233  0.73072  -0.19485
    70.00  0.24212  0.81545  -0.21484
    80.00  0.12406  0.86718  -0.23126
    90.00  0.00005  0.87879  -0.24307
   100.00  -0.08676  0.86718  -0.25284
   110.00  -0.16960  0.81545  -0.25467
   120.00  -0.23954  0.73072  -0.25001
   130.00  -0.29212  0.62397  -0.24202
   140.00  -0.32635  0.50874  -0.23543
   150.00  -0.35165  0.39965  -0.23935
   160.00  -0.39134  0.31027  -0.27784
   170.00  -0.19539  0.25178  -0.24808
   180.00  0.00005  0.23139  -0.00005
EOT
