AeroDyn airfoil file.  Compatible with AeroDyn v13.0.
Interpolated thickness: 0.763

  1        Number of airfoil tables in this file
  9990     Reynolds number in millions.  For efficiency, make very large if only one table.
  0        Control setting
  10.6893  Stall angle (deg)
  -3.11182 Zero lift angle of attack (deg)
  2.30372  Cn slope for zero lift (dimensionless)
  0.55491  Cn at stall value for positive angle of attack
  -0.8     Cn at stall value for negative angle of attack
  -2.12    Angle of attack for minimum CD (deg)
  0.24413  Minimum CD value
  -180.00  0.00007  0.27544  -0.00007
  -170.00  0.12293  0.28826  0.12467
  -160.00  0.24611  0.32502  -0.04472
  -150.00  0.22116  0.38122  -0.01971
  -140.00  0.20526  0.44979  -0.00228
  -130.00  0.18374  0.52223  0.01459
  -120.00  0.15069  0.58934  0.03133
  -110.00  0.10672  0.64260  0.04686
  -100.00  0.05464  0.67513  0.05959
   -90.00  0.00007  0.68242  0.06794
   -80.00  -0.05450  0.67513  0.07412
   -70.00  -0.10658  0.64260  0.07524
   -60.00  -0.15055  0.58934  0.07234
   -50.00  -0.18361  0.52223  0.06729
   -40.00  -0.20512  0.44979  0.06317
   -30.00  -0.22103  0.38122  0.06564
   -20.00  -0.24535  0.32496  0.08959
   -10.00  -0.10034  0.27391  0.03957
    -4.17  -0.02238  0.24419  -0.04204
    -3.17  0.01317  0.24416  -0.04267
    -2.12  0.04996  0.24413  -0.04317
    -1.08  0.08707  0.24413  -0.04373
    -0.05  0.12387  0.24416  -0.04404
    -0.01  0.12396  0.24416  -0.04404
     1.15  0.16743  0.24423  -0.04444
     2.31  0.20837  0.24428  -0.04478
     3.46  0.24944  0.24439  -0.04502
     4.61  0.28922  0.24448  -0.04496
     5.76  0.32774  0.24459  -0.04468
     6.92  0.36425  0.24479  -0.04401
     8.07  0.39424  0.24500  -0.04217
    10.69  0.40786  0.24895  -0.03279
    13.31  0.35698  0.27655  -0.03029
    15.93  0.34472  0.29364  -0.03294
    18.55  0.35259  0.31066  -0.03706
    21.17  0.35063  0.33203  -0.04378
    23.79  0.34016  0.34675  -0.05232
    26.41  0.32969  0.36147  -0.06085
    29.03  0.31922  0.37620  -0.06938
    31.66  0.31179  0.39302  -0.07566
    34.28  0.30593  0.41093  -0.08078
    36.90  0.30006  0.42883  -0.08589
    39.52  0.29420  0.44674  -0.09100
    42.14  0.28651  0.46548  -0.09539
    44.76  0.27845  0.48440  -0.09962
    47.38  0.27039  0.50331  -0.10386
    50.00  0.26233  0.52223  -0.10809
    60.00  0.21524  0.58934  -0.12253
    70.00  0.15225  0.64260  -0.13510
    80.00  0.07803  0.67513  -0.14542
    90.00  0.00007  0.68242  -0.15284
   100.00  -0.05450  0.67513  -0.15898
   110.00  -0.10658  0.64260  -0.16014
   120.00  -0.15055  0.58934  -0.15721
   130.00  -0.18361  0.52223  -0.15219
   140.00  -0.20512  0.44979  -0.14804
   150.00  -0.22103  0.38122  -0.15050
   160.00  -0.24597  0.32502  -0.17470
   170.00  -0.12280  0.28826  -0.15599
   180.00  0.00007  0.27544  -0.00007
EOT
