AeroDyn airfoil file.  Compatible with AeroDyn v13.0.
Interpolated thickness: 0.293

  1        Number of airfoil tables in this file
  9990     Reynolds number in millions.  For efficiency, make very large if only one table.
  0        Control setting
  10.8169  Stall angle (deg)
  -3.56395 Zero lift angle of attack (deg)
  6.03149  Cn slope for zero lift (dimensionless)
  1.51386  Cn at stall value for positive angle of attack
  -0.8     Cn at stall value for negative angle of attack
  -2.12    Angle of attack for minimum CD (deg)
  0.0341757 Minimum CD value
  -180.00  0.00001  0.12757  -0.00001
  -170.00  0.36653  0.16581  0.37210
  -160.00  0.73398  0.27549  -0.13322
  -150.00  0.65956  0.44312  -0.05861
  -140.00  0.61212  0.64768  -0.00661
  -130.00  0.54793  0.86378  0.04372
  -120.00  0.44932  1.06398  0.09367
  -110.00  0.31816  1.22287  0.14000
  -100.00  0.16280  1.31989  0.17795
   -90.00  0.00001  1.34166  0.20288
   -80.00  -0.16279  1.31989  0.22130
   -70.00  -0.31814  1.22287  0.22465
   -60.00  -0.44931  1.06398  0.21600
   -50.00  -0.54792  0.86378  0.20093
   -40.00  -0.61211  0.64768  0.18865
   -30.00  -0.65955  0.44312  0.19600
   -20.00  -0.73211  0.27530  0.26744
   -10.00  -0.29954  0.12302  0.11823
    -4.17  -0.06697  0.03436  -0.12522
    -3.17  0.03908  0.03427  -0.12708
    -2.12  0.14885  0.03418  -0.12857
    -1.08  0.25955  0.03418  -0.13024
    -0.05  0.36932  0.03427  -0.13117
    -0.04  0.36958  0.03427  -0.13118
     1.17  0.49925  0.03447  -0.13237
     2.34  0.62139  0.03464  -0.13339
     3.52  0.74392  0.03495  -0.13409
     4.69  0.86259  0.03522  -0.13391
     5.86  0.97749  0.03556  -0.13308
     7.03  1.08642  0.03614  -0.13109
     8.20  1.17586  0.03678  -0.12559
    10.82  1.21651  0.04857  -0.09761
    13.43  1.06473  0.13090  -0.09015
    16.04  1.02814  0.18188  -0.09807
    18.65  1.05161  0.23265  -0.11037
    21.27  1.04577  0.29638  -0.13041
    23.88  1.01454  0.34030  -0.15587
    26.49  0.98331  0.38423  -0.18132
    29.10  0.95208  0.42815  -0.20678
    31.71  0.92990  0.47833  -0.22551
    34.33  0.91241  0.53175  -0.24077
    36.94  0.89492  0.58516  -0.25602
    39.55  0.87743  0.63858  -0.27128
    42.16  0.85450  0.69450  -0.28436
    44.78  0.83046  0.75093  -0.29699
    47.39  0.80641  0.80736  -0.30962
    50.00  0.78236  0.86378  -0.32225
    60.00  0.64189  1.06398  -0.36532
    70.00  0.45398  1.22287  -0.40281
    80.00  0.23257  1.31989  -0.43360
    90.00  0.00001  1.34166  -0.45574
   100.00  -0.16279  1.31989  -0.47407
   110.00  -0.31814  1.22287  -0.47751
   120.00  -0.44931  1.06398  -0.46877
   130.00  -0.54792  0.86378  -0.45379
   140.00  -0.61211  0.64768  -0.44142
   150.00  -0.65955  0.44312  -0.44877
   160.00  -0.73397  0.27549  -0.52095
   170.00  -0.36652  0.16581  -0.46514
   180.00  0.00001  0.12757  -0.00001
EOT
