AeroDyn airfoil file.  Compatible with AeroDyn v13.0.
Interpolated thickness: 0.43

  1        Number of airfoil tables in this file
  9990     Reynolds number in millions.  For efficiency, make very large if only one table.
  0        Control setting
  10.7797  Stall angle (deg)
  -3.4854  Zero lift angle of attack (deg)
  4.96453  Cn slope for zero lift (dimensionless)
  1.23603  Cn at stall value for positive angle of attack
  -0.8     Cn at stall value for negative angle of attack
  -2.12    Angle of attack for minimum CD (deg)
  0.095375 Minimum CD value
  -180.00  0.00003  0.17068  -0.00003
  -170.00  0.29552  0.20150  0.29998
  -160.00  0.59178  0.28992  -0.10742
  -150.00  0.53178  0.42508  -0.04727
  -140.00  0.49353  0.59000  -0.00535
  -130.00  0.44177  0.76423  0.03523
  -120.00  0.36227  0.92563  0.07550
  -110.00  0.25653  1.05373  0.11285
  -100.00  0.13127  1.13195  0.14345
   -90.00  0.00003  1.14950  0.16355
   -80.00  -0.13122  1.13195  0.17840
   -70.00  -0.25648  1.05373  0.18110
   -60.00  -0.36222  0.92563  0.17413
   -50.00  -0.44172  0.76423  0.16198
   -40.00  -0.49348  0.59000  0.15208
   -30.00  -0.53172  0.42508  0.15800
   -20.00  -0.59023  0.28978  0.21560
   -10.00  -0.24148  0.16700  0.09530
    -4.17  -0.05397  0.09553  -0.10098
    -3.17  0.03152  0.09545  -0.10248
    -2.12  0.12002  0.09538  -0.10367
    -1.08  0.20928  0.09538  -0.10503
    -0.05  0.29778  0.09545  -0.10577
    -0.04  0.29798  0.09545  -0.10578
     1.17  0.40253  0.09561  -0.10674
     2.33  0.50100  0.09575  -0.10756
     3.50  0.59978  0.09600  -0.10813
     4.67  0.69546  0.09621  -0.10798
     5.83  0.78809  0.09649  -0.10731
     7.00  0.87591  0.09696  -0.10571
     8.17  0.94803  0.09748  -0.10128
    10.78  0.98080  0.10698  -0.07871
    13.39  0.85843  0.17336  -0.07270
    16.01  0.82893  0.21446  -0.07908
    18.62  0.84785  0.25539  -0.08900
    21.24  0.84315  0.30677  -0.10516
    23.85  0.81797  0.34218  -0.12568
    26.47  0.79279  0.37759  -0.14621
    29.08  0.76761  0.41301  -0.16673
    31.70  0.74973  0.45346  -0.18183
    34.31  0.73563  0.49653  -0.19413
    36.93  0.72153  0.53959  -0.20643
    39.54  0.70743  0.58266  -0.21873
    42.16  0.68894  0.62774  -0.22927
    44.77  0.66955  0.67324  -0.23946
    47.39  0.65016  0.71873  -0.24964
    50.00  0.63077  0.76423  -0.25982
    60.00  0.51753  0.92563  -0.29455
    70.00  0.36602  1.05373  -0.32477
    80.00  0.18753  1.13195  -0.34960
    90.00  0.00003  1.14950  -0.36745
   100.00  -0.13122  1.13195  -0.38223
   110.00  -0.25648  1.05373  -0.38500
   120.00  -0.36222  0.92563  -0.37795
   130.00  -0.44172  0.76423  -0.36588
   140.00  -0.49348  0.59000  -0.35590
   150.00  -0.53172  0.42508  -0.36183
   160.00  -0.59172  0.28992  -0.42003
   170.00  -0.29547  0.20150  -0.37503
   180.00  0.00003  0.17068  -0.00003
EOT
