AeroDyn airfoil file.  Compatible with AeroDyn v13.0.
Interpolated thickness: 0.699

  1        Number of airfoil tables in this file
  9990     Reynolds number in millions.  For efficiency, make very large if only one table.
  0        Control setting
  10.7067  Stall angle (deg)
  -3.22754 Zero lift angle of attack (deg)
  2.82267  Cn slope for zero lift (dimensionless)
  0.686468 Cn at stall value for positive angle of attack
  -0.8     Cn at stall value for negative angle of attack
  -2.12    Angle of attack for minimum CD (deg)
  0.21554  Minimum CD value
  -180.00  0.00006  0.25530  -0.00006
  -170.00  0.15611  0.27158  0.15836
  -160.00  0.31255  0.31828  -0.05678
  -150.00  0.28086  0.38964  -0.02501
  -140.00  0.26066  0.47674  -0.00287
  -130.00  0.23334  0.56874  0.01855
  -120.00  0.19135  0.65397  0.03982
  -110.00  0.13551  0.72162  0.05955
  -100.00  0.06937  0.76292  0.07570
   -90.00  0.00006  0.77219  0.08632
   -80.00  -0.06925  0.76292  0.09416
   -70.00  -0.13539  0.72162  0.09559
   -60.00  -0.19123  0.65397  0.09190
   -50.00  -0.23321  0.56874  0.08549
   -40.00  -0.26054  0.47674  0.08026
   -30.00  -0.28074  0.38964  0.08339
   -20.00  -0.31163  0.31820  0.11380
   -10.00  -0.12747  0.25336  0.05028
    -4.17  -0.02846  0.21562  -0.05337
    -3.17  0.01669  0.21558  -0.05416
    -2.12  0.06343  0.21554  -0.05479
    -1.08  0.11056  0.21554  -0.05551
    -0.05  0.15729  0.21558  -0.05590
    -0.02  0.15740  0.21558  -0.05590
     1.16  0.21261  0.21567  -0.05641
     2.31  0.26461  0.21574  -0.05685
     3.47  0.31678  0.21587  -0.05715
     4.62  0.36730  0.21598  -0.05707
     5.78  0.41621  0.21613  -0.05672
     6.93  0.46259  0.21638  -0.05587
     8.09  0.50067  0.21665  -0.05353
    10.71  0.51798  0.22167  -0.04161
    13.33  0.45336  0.25672  -0.03844
    15.95  0.43778  0.27842  -0.04181
    18.57  0.44777  0.30004  -0.04705
    21.18  0.44529  0.32717  -0.05558
    23.80  0.43199  0.34587  -0.06642
    26.42  0.41869  0.36457  -0.07725
    29.04  0.40540  0.38327  -0.08809
    31.66  0.39596  0.40464  -0.09607
    34.28  0.38851  0.42738  -0.10256
    36.90  0.38107  0.45012  -0.10906
    39.52  0.37362  0.47286  -0.11555
    42.14  0.36386  0.49667  -0.12112
    44.76  0.35362  0.52069  -0.12650
    47.38  0.34338  0.54472  -0.13188
    50.00  0.33314  0.56874  -0.13725
    60.00  0.27334  0.65397  -0.15559
    70.00  0.19333  0.72162  -0.17155
    80.00  0.09907  0.76292  -0.18466
    90.00  0.00006  0.77219  -0.19409
   100.00  -0.06925  0.76292  -0.20189
   110.00  -0.13539  0.72162  -0.20335
   120.00  -0.19123  0.65397  -0.19963
   130.00  -0.23321  0.56874  -0.19325
   140.00  -0.26054  0.47674  -0.18799
   150.00  -0.28074  0.38964  -0.19112
   160.00  -0.31243  0.31828  -0.22185
   170.00  -0.15598  0.27158  -0.19809
   180.00  0.00006  0.25530  -0.00006
EOT
