AeroDyn airfoil file.  Compatible with AeroDyn v13.0.
Interpolated thickness: 0.936

  1        Number of airfoil tables in this file
  9990     Reynolds number in millions.  For efficiency, make very large if only one table.
  0        Control setting
  10.6424  Stall angle (deg)
  -2.25048 Zero lift angle of attack (deg)
  0.872318 Cn slope for zero lift (dimensionless)
  0.196291 Cn at stall value for positive angle of attack
  -0.8     Cn at stall value for negative angle of attack
  -2.12    Angle of attack for minimum CD (deg)
  0.321411 Minimum CD value
  -180.00  0.00009  0.32987  -0.00009
  -170.00  0.03327  0.33333  0.03359
  -160.00  0.06653  0.34325  -0.01215
  -150.00  0.05980  0.35843  -0.00540
  -140.00  0.05550  0.37695  -0.00069
  -130.00  0.04969  0.39651  0.00387
  -120.00  0.04077  0.41463  0.00839
  -110.00  0.02889  0.42901  0.01258
  -100.00  0.01483  0.43780  0.01602
   -90.00  0.00009  0.43977  0.01827
   -80.00  -0.01465  0.43780  0.01994
   -70.00  -0.02871  0.42901  0.02025
   -60.00  -0.04058  0.41463  0.01946
   -50.00  -0.04951  0.39651  0.01810
   -40.00  -0.05532  0.37695  0.01699
   -30.00  -0.05961  0.35843  0.01765
   -20.00  -0.06618  0.34324  0.02412
   -10.00  -0.02702  0.32945  0.01061
    -4.17  -0.00597  0.32143  -0.01143
    -3.17  0.00363  0.32142  -0.01159
    -2.12  0.01357  0.32141  -0.01173
    -1.08  0.02359  0.32141  -0.01188
    -0.05  0.03352  0.32142  -0.01197
    -0.00  0.03355  0.32142  -0.01197
     1.15  0.04528  0.32144  -0.01207
     2.29  0.05634  0.32145  -0.01217
     3.44  0.06743  0.32148  -0.01223
     4.58  0.07818  0.32150  -0.01221
     5.73  0.08858  0.32154  -0.01214
     6.87  0.09844  0.32159  -0.01196
     8.02  0.10653  0.32165  -0.01146
    10.64  0.11021  0.32271  -0.00893
    13.27  0.09647  0.33017  -0.00825
    15.89  0.09316  0.33478  -0.00897
    18.51  0.09529  0.33938  -0.01008
    21.14  0.09476  0.34515  -0.01190
    23.76  0.09193  0.34912  -0.01420
    26.39  0.08910  0.35310  -0.01650
    29.01  0.08628  0.35707  -0.01881
    31.63  0.08427  0.36162  -0.02051
    34.26  0.08269  0.36645  -0.02189
    36.88  0.08110  0.37129  -0.02327
    39.50  0.07952  0.37612  -0.02465
    42.13  0.07744  0.38119  -0.02583
    44.75  0.07527  0.38629  -0.02698
    47.38  0.07309  0.39140  -0.02812
    50.00  0.07091  0.39651  -0.02926
    60.00  0.05820  0.41463  -0.03316
    70.00  0.04119  0.42901  -0.03655
    80.00  0.02114  0.43780  -0.03934
    90.00  0.00009  0.43977  -0.04135
   100.00  -0.01465  0.43780  -0.04301
   110.00  -0.02871  0.42901  -0.04332
   120.00  -0.04058  0.41463  -0.04253
   130.00  -0.04951  0.39651  -0.04117
   140.00  -0.05532  0.37695  -0.04005
   150.00  -0.05961  0.35843  -0.04071
   160.00  -0.06635  0.34325  -0.04725
   170.00  -0.03309  0.33333  -0.04220
   180.00  0.00009  0.32987  -0.00009
EOT
