AeroDyn airfoil file.  Compatible with AeroDyn v13.0.
Interpolated thickness: 0.233

  1        Number of airfoil tables in this file
  9990     Reynolds number in millions.  For efficiency, make very large if only one table.
  0        Control setting
  9.9119   Stall angle (deg)
  -3.72201 Zero lift angle of attack (deg)
  6.47948  Cn slope for zero lift (dimensionless)
  1.54184  Cn at stall value for positive angle of attack
  -0.8     Cn at stall value for negative angle of attack
  -2.02    Angle of attack for minimum CD (deg)
  0.01013  Minimum CD value
  -180.00  0.00000  0.11891  0.00000
  -170.00  0.39470  0.15988  0.40000
  -160.00  0.79040  0.27742  -0.14264
  -150.00  0.70920  0.45703  -0.06289
  -140.00  0.65820  0.67613  -0.00708
  -130.00  0.58910  0.90744  0.04693
  -120.00  0.48310  1.12150  0.10044
  -110.00  0.34200  1.29104  0.14990
  -100.00  0.17500  1.39399  0.19025
   -90.00  0.00000  1.41600  0.21650
   -80.00  -0.17500  1.39399  0.23643
   -70.00  -0.34200  1.29104  0.24018
   -60.00  -0.48310  1.12150  0.23100
   -50.00  -0.58910  0.90744  0.21486
   -40.00  -0.65820  0.67613  0.20160
   -30.00  -0.70920  0.45703  0.20923
   -20.00  -0.78850  0.27721  0.28571
   -10.00  -0.31620  0.10587  0.11956
    -6.04  -0.14427  0.03811  -0.06017
    -5.04  -0.09328  0.02311  -0.10162
    -4.09  -0.04089  0.01028  -0.13715
    -3.02  0.08017  0.01020  -0.13914
    -2.02  0.19210  0.01013  -0.14059
    -1.03  0.30456  0.01014  -0.14213
    -0.04  0.41665  0.01025  -0.14309
     1.30  0.56902  0.01048  -0.14436
     2.60  0.71430  0.01075  -0.14550
     3.90  0.85911  0.01114  -0.14609
     5.20  0.99625  0.01148  -0.14522
     6.50  1.12822  0.01210  -0.14331
     7.80  1.23890  0.01285  -0.13757
     9.91  1.29503  0.02094  -0.11439
    12.02  1.18985  0.06978  -0.09905
    14.13  1.16215  0.12527  -0.10238
    16.24  1.14367  0.17374  -0.10796
    18.35  1.15169  0.22124  -0.11993
    20.46  1.14266  0.28198  -0.13520
    22.57  1.10829  0.32334  -0.15824
    24.68  1.08107  0.36134  -0.18018
    26.79  1.05386  0.39935  -0.20212
    28.90  1.02664  0.43735  -0.22406
    31.01  1.00553  0.47957  -0.24146
    33.12  0.98991  0.52553  -0.25490
    35.23  0.97470  0.57174  -0.26809
    37.34  0.95949  0.61795  -0.28128
    39.45  0.94427  0.66417  -0.29447
    41.56  0.92484  0.71230  -0.30598
    43.67  0.90390  0.76108  -0.31690
    45.78  0.88297  0.80987  -0.32783
    47.89  0.86203  0.85865  -0.33875
    50.00  0.84110  0.90744  -0.34968
    60.00  0.69010  1.12150  -0.39570
    70.00  0.48810  1.29104  -0.43563
    80.00  0.25000  1.39399  -0.46825
    90.00  0.00000  1.41600  -0.49150
   100.00  -0.17500  1.39399  -0.51134
   110.00  -0.34200  1.29104  -0.51518
   120.00  -0.48310  1.12150  -0.50591
   130.00  -0.58910  0.90744  -0.48986
   140.00  -0.65820  0.67613  -0.47651
   150.00  -0.70920  0.45703  -0.48414
   160.00  -0.79040  0.27742  -0.56137
   170.00  -0.39470  0.15988  -0.50000
   180.00  0.00000  0.11891  0.00000
EOT
