AeroDyn airfoil file.  Compatible with AeroDyn v13.0.
Interpolated thickness: 0.453

  1        Number of airfoil tables in this file
  9990     Reynolds number in millions.  For efficiency, make very large if only one table.
  0        Control setting
  10.7734  Stall angle (deg)
  -3.47018 Zero lift angle of attack (deg)
  4.78385  Cn slope for zero lift (dimensionless)
  1.18926  Cn at stall value for positive angle of attack
  -0.8     Cn at stall value for negative angle of attack
  -2.12    Angle of attack for minimum CD (deg)
  0.105649 Minimum CD value
  -180.00  0.00003  0.17791  -0.00003
  -170.00  0.28360  0.20749  0.28787
  -160.00  0.56790  0.29235  -0.10309
  -150.00  0.51032  0.42205  -0.04537
  -140.00  0.47361  0.58032  -0.00514
  -130.00  0.42395  0.74751  0.03380
  -120.00  0.34766  0.90240  0.07245
  -110.00  0.24618  1.02533  0.10829
  -100.00  0.12598  1.10040  0.13766
   -90.00  0.00003  1.11724  0.15695
   -80.00  -0.12593  1.10040  0.17120
   -70.00  -0.24612  1.02533  0.17379
   -60.00  -0.34760  0.90240  0.16709
   -50.00  -0.42390  0.74751  0.15544
   -40.00  -0.47356  0.58032  0.14593
   -30.00  -0.51027  0.42205  0.15162
   -20.00  -0.56640  0.29221  0.20690
   -10.00  -0.23173  0.17438  0.09145
    -4.17  -0.05179  0.10579  -0.09690
    -3.17  0.03026  0.10572  -0.09834
    -2.12  0.11519  0.10565  -0.09950
    -1.08  0.20083  0.10565  -0.10079
    -0.05  0.28576  0.10572  -0.10151
    -0.03  0.28596  0.10572  -0.10151
     1.17  0.38629  0.10588  -0.10244
     2.33  0.48079  0.10601  -0.10323
     3.50  0.57559  0.10625  -0.10377
     4.66  0.66740  0.10645  -0.10363
     5.83  0.75630  0.10672  -0.10299
     6.99  0.84057  0.10717  -0.10144
     8.16  0.90978  0.10766  -0.09719
    10.77  0.94123  0.11678  -0.07554
    13.39  0.82379  0.18049  -0.06977
    16.00  0.79549  0.21992  -0.07590
    18.62  0.81364  0.25921  -0.08541
    21.23  0.80913  0.30851  -0.10092
    23.85  0.78497  0.34250  -0.12062
    26.46  0.76080  0.37648  -0.14031
    29.08  0.73664  0.41046  -0.16001
    31.69  0.71948  0.44929  -0.17450
    34.31  0.70595  0.49062  -0.18630
    36.92  0.69242  0.53194  -0.19810
    39.54  0.67889  0.57327  -0.20991
    42.15  0.66115  0.61653  -0.22003
    44.77  0.64254  0.66019  -0.22980
    47.38  0.62393  0.70385  -0.23957
    50.00  0.60533  0.74751  -0.24934
    60.00  0.49665  0.90240  -0.28267
    70.00  0.35126  1.02533  -0.31167
    80.00  0.17996  1.10040  -0.33550
    90.00  0.00003  1.11724  -0.35263
   100.00  -0.12593  1.10040  -0.36681
   110.00  -0.24612  1.02533  -0.36947
   120.00  -0.34760  0.90240  -0.36270
   130.00  -0.42390  0.74751  -0.35112
   140.00  -0.47356  0.58032  -0.34154
   150.00  -0.51027  0.42205  -0.34723
   160.00  -0.56784  0.29235  -0.40308
   170.00  -0.28355  0.20749  -0.35990
   180.00  0.00003  0.17791  -0.00003
EOT
