AeroDyn airfoil file.  Compatible with AeroDyn v13.0.
Interpolated thickness: 0.647

  1        Number of airfoil tables in this file
  9990     Reynolds number in millions.  For efficiency, make very large if only one table.
  0        Control setting
  10.7208  Stall angle (deg)
  -3.29771 Zero lift angle of attack (deg)
  3.24164  Cn slope for zero lift (dimensionless)
  0.793129 Cn at stall value for positive angle of attack
  -0.8     Cn at stall value for negative angle of attack
  -2.12    Angle of attack for minimum CD (deg)
  0.192311 Minimum CD value
  -180.00  0.00005  0.23894  -0.00005
  -170.00  0.18306  0.25803  0.18574
  -160.00  0.36652  0.31280  -0.06657
  -150.00  0.32937  0.39649  -0.02932
  -140.00  0.30568  0.49863  -0.00335
  -130.00  0.27363  0.60653  0.02178
  -120.00  0.22439  0.70648  0.04672
  -110.00  0.15890  0.78582  0.06985
  -100.00  0.08134  0.83426  0.08880
   -90.00  0.00005  0.84513  0.10125
   -80.00  -0.08123  0.83426  0.11044
   -70.00  -0.15880  0.78582  0.11212
   -60.00  -0.22429  0.70648  0.10780
   -50.00  -0.27352  0.60653  0.10027
   -40.00  -0.30557  0.49863  0.09414
   -30.00  -0.32926  0.39649  0.09781
   -20.00  -0.36549  0.31270  0.13348
   -10.00  -0.14951  0.23667  0.05898
    -4.17  -0.03339  0.19240  -0.06257
    -3.17  0.01956  0.19236  -0.06350
    -2.12  0.07437  0.19231  -0.06424
    -1.08  0.12964  0.19231  -0.06508
    -0.05  0.18445  0.19236  -0.06554
    -0.02  0.18458  0.19236  -0.06555
     1.16  0.24932  0.19246  -0.06614
     2.31  0.31031  0.19254  -0.06665
     3.47  0.37148  0.19270  -0.06700
     4.63  0.43074  0.19283  -0.06691
     5.79  0.48810  0.19300  -0.06650
     6.94  0.54249  0.19329  -0.06550
     8.10  0.58715  0.19361  -0.06276
    10.72  0.60744  0.19950  -0.04879
    13.34  0.53166  0.24061  -0.04506
    15.96  0.51339  0.26606  -0.04901
    18.58  0.52511  0.29141  -0.05516
    21.20  0.52220  0.32323  -0.06516
    23.81  0.50660  0.34516  -0.07787
    26.43  0.49101  0.36709  -0.09058
    29.05  0.47542  0.38902  -0.10329
    31.67  0.46434  0.41407  -0.11265
    34.29  0.45561  0.44075  -0.12026
    36.91  0.44688  0.46742  -0.12788
    39.53  0.43815  0.49409  -0.13550
    42.14  0.42670  0.52200  -0.14203
    44.76  0.41469  0.55018  -0.14833
    47.38  0.40268  0.57835  -0.15464
    50.00  0.39068  0.60653  -0.16095
    60.00  0.32054  0.70648  -0.18245
    70.00  0.22672  0.78582  -0.20117
    80.00  0.11617  0.83426  -0.21654
    90.00  0.00005  0.84513  -0.22760
   100.00  -0.08123  0.83426  -0.23675
   110.00  -0.15880  0.78582  -0.23847
   120.00  -0.22429  0.70648  -0.23410
   130.00  -0.27352  0.60653  -0.22662
   140.00  -0.30557  0.49863  -0.22045
   150.00  -0.32926  0.39649  -0.22412
   160.00  -0.36642  0.31280  -0.26016
   170.00  -0.18295  0.25803  -0.23229
   180.00  0.00005  0.23894  -0.00005
EOT
