AeroDyn airfoil file.  Compatible with AeroDyn v13.0.
Interpolated thickness: 0.83

  1        Number of airfoil tables in this file
  9990     Reynolds number in millions.  For efficiency, make very large if only one table.
  0        Control setting
  10.6711  Stall angle (deg)
  -3.00444 Zero lift angle of attack (deg)
  1.73228  Cn slope for zero lift (dimensionless)
  0.413466 Cn at stall value for positive angle of attack
  -0.8     Cn at stall value for negative angle of attack
  -2.12    Angle of attack for minimum CD (deg)
  0.274059 Minimum CD value
  -180.00  0.00008  0.29652  -0.00008
  -170.00  0.08821  0.30571  0.08940
  -160.00  0.17656  0.33208  -0.03211
  -150.00  0.15867  0.37239  -0.01417
  -140.00  0.14726  0.42158  -0.00167
  -130.00  0.13183  0.47354  0.01044
  -120.00  0.10812  0.52168  0.02245
  -110.00  0.07658  0.55988  0.03359
  -100.00  0.03922  0.58321  0.04271
   -90.00  0.00008  0.58845  0.04871
   -80.00  -0.03907  0.58321  0.05314
   -70.00  -0.07642  0.55988  0.05394
   -60.00  -0.10796  0.52168  0.05186
   -50.00  -0.13167  0.47354  0.04824
   -40.00  -0.14711  0.42158  0.04529
   -30.00  -0.15851  0.37239  0.04705
   -20.00  -0.17596  0.33204  0.06423
   -10.00  -0.07195  0.29542  0.02835
    -4.17  -0.01603  0.27410  -0.03019
    -3.17  0.00947  0.27408  -0.03063
    -2.12  0.03587  0.27406  -0.03099
    -1.08  0.06249  0.27406  -0.03139
    -0.05  0.08888  0.27408  -0.03162
    -0.01  0.08894  0.27408  -0.03162
     1.15  0.12012  0.27413  -0.03190
     2.30  0.14949  0.27417  -0.03215
     3.45  0.17895  0.27425  -0.03232
     4.60  0.20749  0.27431  -0.03228
     5.75  0.23512  0.27439  -0.03208
     6.90  0.26131  0.27453  -0.03160
     8.05  0.28281  0.27469  -0.03028
    10.67  0.29259  0.27752  -0.02355
    13.29  0.25609  0.29732  -0.02175
    15.91  0.24730  0.30957  -0.02366
    18.54  0.25294  0.32178  -0.02661
    21.16  0.25154  0.33711  -0.03143
    23.78  0.24403  0.34767  -0.03755
    26.40  0.23652  0.35823  -0.04368
    29.02  0.22901  0.36879  -0.04980
    31.65  0.22367  0.38086  -0.05430
    34.27  0.21947  0.39370  -0.05797
    36.89  0.21526  0.40655  -0.06164
    39.51  0.21106  0.41939  -0.06531
    42.13  0.20554  0.43284  -0.06845
    44.76  0.19976  0.44640  -0.07149
    47.38  0.19398  0.45997  -0.07452
    50.00  0.18820  0.47354  -0.07756
    60.00  0.15442  0.52168  -0.08792
    70.00  0.10924  0.55988  -0.09693
    80.00  0.05600  0.58321  -0.10434
    90.00  0.00008  0.58845  -0.10966
   100.00  -0.03907  0.58321  -0.11407
   110.00  -0.07642  0.55988  -0.11489
   120.00  -0.10796  0.52168  -0.11279
   130.00  -0.13167  0.47354  -0.10919
   140.00  -0.14711  0.42158  -0.10622
   150.00  -0.15851  0.37239  -0.10798
   160.00  -0.17641  0.33208  -0.12534
   170.00  -0.08805  0.30571  -0.11192
   180.00  0.00008  0.29652  -0.00008
EOT
