AeroDyn airfoil file.  Compatible with AeroDyn v13.0.
Interpolated thickness: 0.79

  1        Number of airfoil tables in this file
  9990     Reynolds number in millions.  For efficiency, make very large if only one table.
  0        Control setting
  10.682   Stall angle (deg)
  -3.04776 Zero lift angle of attack (deg)
  2.0837   Cn slope for zero lift (dimensionless)
  0.499315 Cn at stall value for positive angle of attack
  -0.8     Cn at stall value for negative angle of attack
  -2.12    Angle of attack for minimum CD (deg)
  0.256191 Minimum CD value
  -180.00  0.00007  0.28393  -0.00007
  -170.00  0.10894  0.29529  0.11045
  -160.00  0.21809  0.32787  -0.03964
  -150.00  0.19598  0.37766  -0.01748
  -140.00  0.18189  0.43842  -0.00203
  -130.00  0.16282  0.50261  0.01291
  -120.00  0.13353  0.56207  0.02775
  -110.00  0.09457  0.60927  0.04151
  -100.00  0.04843  0.63809  0.05279
   -90.00  0.00007  0.64455  0.06019
   -80.00  -0.04828  0.63809  0.06566
   -70.00  -0.09443  0.60927  0.06666
   -60.00  -0.13339  0.56207  0.06409
   -50.00  -0.16268  0.50261  0.05961
   -40.00  -0.18174  0.43842  0.05596
   -30.00  -0.19584  0.37766  0.05815
   -20.00  -0.21739  0.32781  0.07937
   -10.00  -0.08890  0.28258  0.03505
    -4.17  -0.01982  0.25625  -0.03726
    -3.17  0.01168  0.25622  -0.03782
    -2.12  0.04428  0.25619  -0.03826
    -1.08  0.07716  0.25619  -0.03876
    -0.05  0.10977  0.25622  -0.03903
    -0.01  0.10985  0.25622  -0.03903
     1.15  0.14836  0.25628  -0.03939
     2.30  0.18464  0.25633  -0.03969
     3.45  0.22104  0.25642  -0.03990
     4.61  0.25629  0.25650  -0.03985
     5.76  0.29041  0.25660  -0.03960
     6.91  0.32277  0.25678  -0.03901
     8.06  0.34934  0.25696  -0.03737
    10.68  0.36141  0.26046  -0.02906
    13.30  0.31633  0.28492  -0.02685
    15.92  0.30546  0.30006  -0.02920
    18.55  0.31243  0.31514  -0.03285
    21.17  0.31070  0.33407  -0.03881
    23.79  0.30142  0.34712  -0.04637
    26.41  0.29214  0.36017  -0.05393
    29.03  0.28287  0.37321  -0.06149
    31.65  0.27628  0.38812  -0.06705
    34.27  0.27108  0.40398  -0.07159
    36.89  0.26589  0.41985  -0.07612
    39.52  0.26069  0.43572  -0.08065
    42.14  0.25388  0.45233  -0.08453
    44.76  0.24674  0.46909  -0.08828
    47.38  0.23960  0.48585  -0.09204
    50.00  0.23245  0.50261  -0.09579
    60.00  0.19073  0.56207  -0.10858
    70.00  0.13491  0.60927  -0.11972
    80.00  0.06915  0.63809  -0.12886
    90.00  0.00007  0.64455  -0.13544
   100.00  -0.04828  0.63809  -0.14088
   110.00  -0.09443  0.60927  -0.14191
   120.00  -0.13339  0.56207  -0.13931
   130.00  -0.16268  0.50261  -0.13486
   140.00  -0.18174  0.43842  -0.13118
   150.00  -0.19584  0.37766  -0.13337
   160.00  -0.21794  0.32787  -0.15481
   170.00  -0.10880  0.29529  -0.13823
   180.00  0.00007  0.28393  -0.00007
EOT
