AeroDyn airfoil file.  Compatible with AeroDyn v13.0.
Interpolated thickness: 0.556

  1        Number of airfoil tables in this file
  9990     Reynolds number in millions.  For efficiency, make very large if only one table.
  0        Control setting
  10.7455  Stall angle (deg)
  -3.39098 Zero lift angle of attack (deg)
  3.96912  Cn slope for zero lift (dimensionless)
  0.979292 Cn at stall value for positive angle of attack
  -0.8     Cn at stall value for negative angle of attack
  -2.12    Angle of attack for minimum CD (deg)
  0.151661 Minimum CD value
  -180.00  0.00004  0.21032  -0.00004
  -170.00  0.23022  0.23433  0.23364
  -160.00  0.46098  0.30320  -0.08370
  -150.00  0.41425  0.40848  -0.03685
  -140.00  0.38445  0.53695  -0.00419
  -130.00  0.34414  0.67266  0.02742
  -120.00  0.28222  0.79838  0.05879
  -110.00  0.19984  0.89816  0.08788
  -100.00  0.10228  0.95910  0.11172
   -90.00  0.00004  0.97277  0.12737
   -80.00  -0.10220  0.95910  0.13894
   -70.00  -0.19976  0.89816  0.14105
   -60.00  -0.28213  0.79838  0.13561
   -50.00  -0.34406  0.67266  0.12615
   -40.00  -0.38437  0.53695  0.11844
   -30.00  -0.41416  0.40848  0.12305
   -20.00  -0.45973  0.30309  0.16792
   -10.00  -0.18807  0.20745  0.07421
    -4.17  -0.04202  0.15178  -0.07868
    -3.17  0.02458  0.15172  -0.07984
    -2.12  0.09352  0.15166  -0.08078
    -1.08  0.16304  0.15166  -0.08183
    -0.05  0.23197  0.15172  -0.08242
    -0.03  0.23213  0.15172  -0.08242
     1.16  0.31357  0.15185  -0.08317
     2.32  0.39027  0.15195  -0.08381
     3.48  0.46722  0.15215  -0.08425
     4.64  0.54175  0.15231  -0.08414
     5.81  0.61390  0.15253  -0.08361
     6.97  0.68231  0.15290  -0.08236
     8.13  0.73848  0.15330  -0.07891
    10.75  0.76401  0.16070  -0.06134
    13.36  0.66869  0.21241  -0.05665
    15.98  0.64572  0.24442  -0.06162
    18.60  0.66045  0.27630  -0.06935
    21.21  0.65679  0.31633  -0.08194
    23.83  0.63718  0.34391  -0.09792
    26.45  0.61756  0.37149  -0.11391
    29.06  0.59795  0.39908  -0.12990
    31.68  0.58402  0.43059  -0.14166
    34.30  0.57304  0.46414  -0.15124
    36.92  0.56206  0.49768  -0.16082
    39.53  0.55107  0.53123  -0.17040
    42.15  0.53667  0.56635  -0.17861
    44.77  0.52157  0.60178  -0.18655
    47.38  0.50647  0.63722  -0.19448
    50.00  0.49136  0.67266  -0.20241
    60.00  0.40315  0.79838  -0.22946
    70.00  0.28514  0.89816  -0.25300
    80.00  0.14609  0.95910  -0.27234
    90.00  0.00004  0.97277  -0.28625
   100.00  -0.10220  0.95910  -0.29776
   110.00  -0.19976  0.89816  -0.29992
   120.00  -0.28213  0.79838  -0.29443
   130.00  -0.34406  0.67266  -0.28502
   140.00  -0.38437  0.53695  -0.27725
   150.00  -0.41416  0.40848  -0.28186
   160.00  -0.46090  0.30320  -0.32720
   170.00  -0.23014  0.23433  -0.29215
   180.00  0.00004  0.21032  -0.00004
EOT
