AeroDyn airfoil file.  Compatible with AeroDyn v13.0.
Interpolated thickness: 0.881

  1        Number of airfoil tables in this file
  9990     Reynolds number in millions.  For efficiency, make very large if only one table.
  0        Control setting
  10.6573  Stall angle (deg)
  -2.76261 Zero lift angle of attack (deg)
  1.3194   Cn slope for zero lift (dimensionless)
  0.309031 Cn at stall value for positive angle of attack
  -0.8     Cn at stall value for negative angle of attack
  -2.12    Angle of attack for minimum CD (deg)
  0.296841 Minimum CD value
  -180.00  0.00008  0.31256  -0.00008
  -170.00  0.06178  0.31900  0.06255
  -160.00  0.12363  0.33746  -0.02251
  -150.00  0.11110  0.36567  -0.00995
  -140.00  0.10311  0.40011  -0.00120
  -130.00  0.09231  0.43648  0.00727
  -120.00  0.07571  0.47017  0.01568
  -110.00  0.05363  0.49692  0.02348
  -100.00  0.02749  0.51325  0.02987
   -90.00  0.00008  0.51691  0.03407
   -80.00  -0.02732  0.51325  0.03717
   -70.00  -0.05347  0.49692  0.03773
   -60.00  -0.07554  0.47017  0.03627
   -50.00  -0.09214  0.43648  0.03374
   -40.00  -0.10294  0.40011  0.03167
   -30.00  -0.11093  0.36567  0.03291
   -20.00  -0.12314  0.33743  0.04493
   -10.00  -0.05033  0.31179  0.01982
    -4.17  -0.01119  0.29687  -0.02116
    -3.17  0.00666  0.29686  -0.02147
    -2.12  0.02514  0.29684  -0.02172
    -1.08  0.04377  0.29684  -0.02201
    -0.05  0.06225  0.29686  -0.02216
    -0.01  0.06229  0.29686  -0.02216
     1.15  0.08412  0.29689  -0.02236
     2.30  0.10467  0.29692  -0.02254
     3.44  0.12530  0.29697  -0.02265
     4.59  0.14527  0.29702  -0.02262
     5.74  0.16461  0.29707  -0.02248
     6.89  0.18295  0.29717  -0.02215
     8.03  0.19800  0.29728  -0.02122
    10.66  0.20484  0.29926  -0.01651
    13.28  0.17929  0.31312  -0.01526
    15.90  0.17314  0.32170  -0.01659
    18.53  0.17709  0.33025  -0.01866
    21.15  0.17610  0.34097  -0.02203
    23.77  0.17085  0.34837  -0.02632
    26.39  0.16559  0.35576  -0.03060
    29.02  0.16033  0.36315  -0.03489
    31.64  0.15660  0.37160  -0.03804
    34.26  0.15366  0.38059  -0.04061
    36.89  0.15071  0.38958  -0.04318
    39.51  0.14777  0.39857  -0.04574
    42.13  0.14391  0.40798  -0.04794
    44.75  0.13986  0.41748  -0.05007
    47.38  0.13582  0.42698  -0.05220
    50.00  0.13177  0.43648  -0.05432
    60.00  0.10812  0.47017  -0.06157
    70.00  0.07649  0.49692  -0.06788
    80.00  0.03923  0.51325  -0.07307
    90.00  0.00008  0.51691  -0.07679
   100.00  -0.02732  0.51325  -0.07988
   110.00  -0.05347  0.49692  -0.08046
   120.00  -0.07554  0.47017  -0.07898
   130.00  -0.09214  0.43648  -0.07646
   140.00  -0.10294  0.40011  -0.07438
   150.00  -0.11093  0.36567  -0.07562
   160.00  -0.12346  0.33746  -0.08777
   170.00  -0.06161  0.31900  -0.07837
   180.00  0.00008  0.31256  -0.00008
EOT
