AeroDyn airfoil file.  Compatible with AeroDyn v13.0.
Interpolated thickness: 0.519

  1        Number of airfoil tables in this file
  9990     Reynolds number in millions.  For efficiency, make very large if only one table.
  0        Control setting
  10.7555  Stall angle (deg)
  -3.42186 Zero lift angle of attack (deg)
  4.26284  Cn slope for zero lift (dimensionless)
  1.05481  Cn at stall value for positive angle of attack
  -0.8     Cn at stall value for negative angle of attack
  -2.12    Angle of attack for minimum CD (deg)
  0.135132 Minimum CD value
  -180.00  0.00004  0.19867  -0.00004
  -170.00  0.24940  0.22469  0.25312
  -160.00  0.49939  0.29931  -0.09067
  -150.00  0.44876  0.41335  -0.03991
  -140.00  0.41648  0.55253  -0.00453
  -130.00  0.37281  0.69955  0.02971
  -120.00  0.30572  0.83575  0.06370
  -110.00  0.21649  0.94385  0.09521
  -100.00  0.11079  1.00986  0.12104
   -90.00  0.00004  1.02467  0.13800
   -80.00  -0.11072  1.00986  0.15053
   -70.00  -0.21641  0.94385  0.15281
   -60.00  -0.30565  0.83575  0.14692
   -50.00  -0.37274  0.69955  0.13667
   -40.00  -0.41641  0.55253  0.12831
   -30.00  -0.44869  0.41335  0.13331
   -20.00  -0.49805  0.29918  0.18192
   -10.00  -0.20376  0.19557  0.08040
    -4.17  -0.04553  0.13526  -0.08522
    -3.17  0.02662  0.13520  -0.08649
    -2.12  0.10130  0.13513  -0.08750
    -1.08  0.17661  0.13513  -0.08864
    -0.05  0.25130  0.13520  -0.08927
    -0.03  0.25147  0.13520  -0.08928
     1.16  0.33969  0.13533  -0.09009
     2.33  0.42279  0.13545  -0.09078
     3.49  0.50615  0.13566  -0.09126
     4.65  0.58689  0.13584  -0.09114
     5.81  0.66505  0.13607  -0.09057
     6.98  0.73916  0.13647  -0.08922
     8.14  0.80002  0.13690  -0.08548
    10.76  0.82767  0.14492  -0.06644
    13.37  0.72441  0.20094  -0.06137
    15.99  0.69952  0.23562  -0.06675
    18.60  0.71548  0.27016  -0.07512
    21.22  0.71151  0.31352  -0.08876
    23.84  0.69026  0.34340  -0.10607
    26.45  0.66902  0.37329  -0.12339
    29.07  0.64777  0.40317  -0.14071
    31.69  0.63268  0.43731  -0.15346
    34.30  0.62078  0.47365  -0.16383
    36.92  0.60888  0.50999  -0.17421
    39.53  0.59699  0.54633  -0.18459
    42.15  0.58138  0.58437  -0.19349
    44.77  0.56502  0.62277  -0.20208
    47.38  0.54866  0.66116  -0.21068
    50.00  0.53230  0.69955  -0.21927
    60.00  0.43673  0.83575  -0.24857
    70.00  0.30889  0.94385  -0.27408
    80.00  0.15826  1.00986  -0.29503
    90.00  0.00004  1.02467  -0.31009
   100.00  -0.11072  1.00986  -0.32256
   110.00  -0.21641  0.94385  -0.32490
   120.00  -0.30565  0.83575  -0.31895
   130.00  -0.37274  0.69955  -0.30876
   140.00  -0.41641  0.55253  -0.30035
   150.00  -0.44869  0.41335  -0.30535
   160.00  -0.49932  0.29931  -0.35446
   170.00  -0.24932  0.22469  -0.31648
   180.00  0.00004  0.19867  -0.00004
EOT
