AeroDyn airfoil file.  Compatible with AeroDyn v13.0.
Interpolated thickness: 0.448

  1        Number of airfoil tables in this file
  9990     Reynolds number in millions.  For efficiency, make very large if only one table.
  0        Control setting
  10.7748  Stall angle (deg)
  -3.47355 Zero lift angle of attack (deg)
  4.82316  Cn slope for zero lift (dimensionless)
  1.19943  Cn at stall value for positive angle of attack
  -0.8     Cn at stall value for negative angle of attack
  -2.12    Angle of attack for minimum CD (deg)
  0.103416 Minimum CD value
  -180.00  0.00003  0.17634  -0.00003
  -170.00  0.28620  0.20619  0.29050
  -160.00  0.57309  0.29182  -0.10404
  -150.00  0.51499  0.42270  -0.04579
  -140.00  0.47794  0.58242  -0.00518
  -130.00  0.42783  0.75114  0.03411
  -120.00  0.35084  0.90745  0.07311
  -110.00  0.24843  1.03150  0.10928
  -100.00  0.12713  1.10726  0.13892
   -90.00  0.00003  1.12425  0.15838
   -80.00  -0.12708  1.10726  0.17276
   -70.00  -0.24837  1.03150  0.17538
   -60.00  -0.35078  0.90745  0.16862
   -50.00  -0.42777  0.75114  0.15686
   -40.00  -0.47789  0.58242  0.14727
   -30.00  -0.51493  0.42270  0.15301
   -20.00  -0.57158  0.29168  0.20879
   -10.00  -0.23385  0.17278  0.09229
    -4.17  -0.05227  0.10356  -0.09779
    -3.17  0.03053  0.10349  -0.09924
    -2.12  0.11624  0.10342  -0.10040
    -1.08  0.20267  0.10342  -0.10171
    -0.05  0.28837  0.10349  -0.10244
    -0.03  0.28857  0.10349  -0.10244
     1.17  0.38982  0.10365  -0.10337
     2.33  0.48518  0.10378  -0.10417
     3.50  0.58085  0.10402  -0.10471
     4.66  0.67350  0.10423  -0.10458
     5.83  0.76321  0.10450  -0.10393
     6.99  0.84826  0.10495  -0.10237
     8.16  0.91809  0.10545  -0.09808
    10.77  0.94983  0.11465  -0.07623
    13.39  0.83132  0.17894  -0.07041
    16.00  0.80276  0.21874  -0.07659
    18.62  0.82108  0.25838  -0.08619
    21.23  0.81652  0.30814  -0.10184
    23.85  0.79214  0.34243  -0.12172
    26.46  0.76775  0.37672  -0.14159
    29.08  0.74337  0.41102  -0.16147
    31.69  0.72606  0.45020  -0.17609
    34.31  0.71240  0.49190  -0.18800
    36.92  0.69875  0.53361  -0.19991
    39.54  0.68509  0.57531  -0.21182
    42.15  0.66719  0.61897  -0.22204
    44.77  0.64841  0.66303  -0.23190
    47.38  0.62964  0.70709  -0.24176
    50.00  0.61086  0.75114  -0.25162
    60.00  0.50119  0.90745  -0.28525
    70.00  0.35447  1.03150  -0.31452
    80.00  0.18161  1.10726  -0.33856
    90.00  0.00003  1.12425  -0.35585
   100.00  -0.12708  1.10726  -0.37016
   110.00  -0.24837  1.03150  -0.37285
   120.00  -0.35078  0.90745  -0.36602
   130.00  -0.42777  0.75114  -0.35432
   140.00  -0.47789  0.58242  -0.34466
   150.00  -0.51493  0.42270  -0.35040
   160.00  -0.57304  0.29182  -0.40676
   170.00  -0.28614  0.20619  -0.36319
   180.00  0.00003  0.17634  -0.00003
EOT
