AeroDyn airfoil file.  Compatible with AeroDyn v13.0.
Interpolated thickness: 0.338

  1        Number of airfoil tables in this file
  9990     Reynolds number in millions.  For efficiency, make very large if only one table.
  0        Control setting
  10.8047  Stall angle (deg)
  -3.54006 Zero lift angle of attack (deg)
  5.68277  Cn slope for zero lift (dimensionless)
  1.42275  Cn at stall value for positive angle of attack
  -0.8     Cn at stall value for negative angle of attack
  -2.12    Angle of attack for minimum CD (deg)
  0.0542776 Minimum CD value
  -180.00  0.00001  0.14173  -0.00001
  -170.00  0.34321  0.17753  0.34841
  -160.00  0.68727  0.28023  -0.12475
  -150.00  0.61759  0.43719  -0.05489
  -140.00  0.57317  0.62874  -0.00620
  -130.00  0.51306  0.83108  0.04093
  -120.00  0.42073  1.01853  0.08770
  -110.00  0.29791  1.16731  0.13108
  -100.00  0.15245  1.25816  0.16662
   -90.00  0.00001  1.27854  0.18996
   -80.00  -0.15242  1.25816  0.20721
   -70.00  -0.29789  1.16731  0.21035
   -60.00  -0.42071  1.01853  0.20225
   -50.00  -0.51304  0.83108  0.18813
   -40.00  -0.57314  0.62874  0.17664
   -30.00  -0.61756  0.43719  0.18352
   -20.00  -0.68551  0.28005  0.25041
   -10.00  -0.28047  0.13746  0.11070
    -4.17  -0.06270  0.05445  -0.11726
    -3.17  0.03660  0.05436  -0.11900
    -2.12  0.13938  0.05428  -0.12039
    -1.08  0.24304  0.05428  -0.12196
    -0.05  0.34582  0.05436  -0.12283
    -0.04  0.34606  0.05437  -0.12283
     1.17  0.46748  0.05456  -0.12395
     2.34  0.58184  0.05471  -0.12491
     3.51  0.69657  0.05500  -0.12556
     4.68  0.80770  0.05525  -0.12540
     5.85  0.91528  0.05557  -0.12462
     7.02  1.01727  0.05612  -0.12275
     8.19  1.10102  0.05672  -0.11760
    10.80  1.13909  0.06775  -0.09140
    13.42  0.99697  0.14485  -0.08442
    16.03  0.96271  0.19258  -0.09183
    18.64  0.98468  0.24012  -0.10335
    21.26  0.97922  0.29979  -0.12212
    23.87  0.94997  0.34092  -0.14595
    26.48  0.92073  0.38205  -0.16979
    29.10  0.89149  0.42317  -0.19362
    31.71  0.87072  0.47016  -0.21116
    34.32  0.85435  0.52018  -0.22545
    36.93  0.83797  0.57020  -0.23973
    39.55  0.82159  0.62021  -0.25402
    42.16  0.80012  0.67257  -0.26626
    44.77  0.77760  0.72541  -0.27809
    47.39  0.75509  0.77824  -0.28992
    50.00  0.73257  0.83108  -0.30175
    60.00  0.60104  1.01853  -0.34208
    70.00  0.42509  1.16731  -0.37718
    80.00  0.21778  1.25816  -0.40601
    90.00  0.00001  1.27854  -0.42674
   100.00  -0.15242  1.25816  -0.44390
   110.00  -0.29789  1.16731  -0.44712
   120.00  -0.42071  1.01853  -0.43894
   130.00  -0.51304  0.83108  -0.42491
   140.00  -0.57314  0.62874  -0.41333
   150.00  -0.61756  0.43719  -0.42021
   160.00  -0.68725  0.28023  -0.48780
   170.00  -0.34318  0.17753  -0.43554
   180.00  0.00001  0.14173  -0.00001
EOT
