AeroDyn airfoil file.  Compatible with AeroDyn v13.0.
Interpolated thickness: 0.373

  1        Number of airfoil tables in this file
  9990     Reynolds number in millions.  For efficiency, make very large if only one table.
  0        Control setting
  10.7952  Stall angle (deg)
  -3.52029 Zero lift angle of attack (deg)
  5.41037  Cn slope for zero lift (dimensionless)
  1.35179  Cn at stall value for positive angle of attack
  -0.8     Cn at stall value for negative angle of attack
  -2.12    Angle of attack for minimum CD (deg)
  0.0699125 Minimum CD value
  -180.00  0.00002  0.15274  -0.00002
  -170.00  0.32507  0.18665  0.32998
  -160.00  0.65094  0.28392  -0.11816
  -150.00  0.58494  0.43258  -0.05199
  -140.00  0.54287  0.61400  -0.00588
  -130.00  0.48594  0.80565  0.03876
  -120.00  0.39849  0.98319  0.08306
  -110.00  0.28217  1.12410  0.12414
  -100.00  0.14439  1.21015  0.15780
   -90.00  0.00002  1.22945  0.17991
   -80.00  -0.14436  1.21015  0.19625
   -70.00  -0.28213  1.12410  0.19922
   -60.00  -0.39846  0.98319  0.19155
   -50.00  -0.48591  0.80565  0.17818
   -40.00  -0.54283  0.61400  0.16729
   -30.00  -0.58491  0.43258  0.17381
   -20.00  -0.64926  0.28375  0.23717
   -10.00  -0.26563  0.14870  0.10484
    -4.17  -0.05938  0.07008  -0.11106
    -3.17  0.03467  0.07000  -0.11271
    -2.12  0.13202  0.06991  -0.11403
    -1.08  0.23019  0.06991  -0.11552
    -0.05  0.32754  0.07000  -0.11634
    -0.04  0.32777  0.07000  -0.11634
     1.17  0.44277  0.07018  -0.11740
     2.34  0.55109  0.07032  -0.11831
     3.51  0.65975  0.07060  -0.11893
     4.68  0.76500  0.07083  -0.11877
     5.84  0.86689  0.07114  -0.11803
     7.01  0.96350  0.07166  -0.11627
     8.18  1.04282  0.07222  -0.11139
    10.80  1.07887  0.08267  -0.08657
    13.41  0.94426  0.15569  -0.07996
    16.02  0.91182  0.20090  -0.08698
    18.64  0.93263  0.24593  -0.09789
    21.25  0.92745  0.30245  -0.11566
    23.86  0.89975  0.34140  -0.13824
    26.48  0.87206  0.38035  -0.16082
    29.09  0.84436  0.41931  -0.18339
    31.70  0.82469  0.46381  -0.20001
    34.32  0.80918  0.51118  -0.21353
    36.93  0.79367  0.55855  -0.22706
    39.55  0.77816  0.60593  -0.24059
    42.16  0.75782  0.65552  -0.25219
    44.77  0.73650  0.70556  -0.26339
    47.39  0.71517  0.75560  -0.27460
    50.00  0.69384  0.80565  -0.28580
    60.00  0.56927  0.98319  -0.32399
    70.00  0.40262  1.12410  -0.35724
    80.00  0.20627  1.21015  -0.38455
    90.00  0.00002  1.22945  -0.40418
   100.00  -0.14436  1.21015  -0.42044
   110.00  -0.28213  1.12410  -0.42349
   120.00  -0.39846  0.98319  -0.41573
   130.00  -0.48591  0.80565  -0.40245
   140.00  -0.54283  0.61400  -0.39148
   150.00  -0.58491  0.43258  -0.39800
   160.00  -0.65091  0.28392  -0.46202
   170.00  -0.32503  0.18665  -0.41252
   180.00  0.00002  0.15274  -0.00002
EOT
