AeroDyn airfoil file.  Compatible with AeroDyn v13.0.
Interpolated thickness: 0.51

  1        Number of airfoil tables in this file
  9990     Reynolds number in millions.  For efficiency, make very large if only one table.
  0        Control setting
  10.758   Stall angle (deg)
  -3.42892 Zero lift angle of attack (deg)
  4.33411  Cn slope for zero lift (dimensionless)
  1.07316  Cn at stall value for positive angle of attack
  -0.8     Cn at stall value for negative angle of attack
  -2.12    Angle of attack for minimum CD (deg)
  0.131112 Minimum CD value
  -180.00  0.00004  0.19584  -0.00004
  -170.00  0.25406  0.22234  0.25786
  -160.00  0.50873  0.29836  -0.09236
  -150.00  0.45715  0.41454  -0.04065
  -140.00  0.42427  0.55632  -0.00461
  -130.00  0.37979  0.70609  0.03027
  -120.00  0.31144  0.84484  0.06489
  -110.00  0.22054  0.95496  0.09700
  -100.00  0.11286  1.02220  0.12330
   -90.00  0.00004  1.03729  0.14058
   -80.00  -0.11279  1.02220  0.15335
   -70.00  -0.22046  0.95496  0.15567
   -60.00  -0.31137  0.84484  0.14967
   -50.00  -0.37971  0.70609  0.13923
   -40.00  -0.42420  0.55632  0.13072
   -30.00  -0.45708  0.41454  0.13581
   -20.00  -0.50737  0.29823  0.18533
   -10.00  -0.20757  0.19268  0.08191
    -4.17  -0.04639  0.13124  -0.08682
    -3.17  0.02711  0.13118  -0.08811
    -2.12  0.10319  0.13111  -0.08914
    -1.08  0.17992  0.13111  -0.09030
    -0.05  0.25600  0.13118  -0.09094
    -0.03  0.25617  0.13118  -0.09095
     1.16  0.34605  0.13132  -0.09177
     2.33  0.43070  0.13143  -0.09248
     3.49  0.51562  0.13165  -0.09296
     4.65  0.59787  0.13183  -0.09284
     5.82  0.67750  0.13207  -0.09226
     6.98  0.75299  0.13248  -0.09088
     8.14  0.81498  0.13292  -0.08708
    10.76  0.84316  0.14108  -0.06768
    13.37  0.73796  0.19815  -0.06251
    15.99  0.71260  0.23348  -0.06800
    18.61  0.72887  0.26867  -0.07652
    21.22  0.72482  0.31284  -0.09041
    23.84  0.70318  0.34328  -0.10806
    26.45  0.68153  0.37372  -0.12570
    29.07  0.65989  0.40416  -0.14334
    31.69  0.64452  0.43894  -0.15633
    34.30  0.63240  0.47596  -0.16690
    36.92  0.62028  0.51299  -0.17747
    39.54  0.60815  0.55001  -0.18804
    42.15  0.59226  0.58876  -0.19711
    44.77  0.57559  0.62787  -0.20586
    47.38  0.55893  0.66698  -0.21462
    50.00  0.54226  0.70609  -0.22337
    60.00  0.44490  0.84484  -0.25322
    70.00  0.31467  0.95496  -0.27921
    80.00  0.16122  1.02220  -0.30055
    90.00  0.00004  1.03729  -0.31589
   100.00  -0.11279  1.02220  -0.32859
   110.00  -0.22046  0.95496  -0.33098
   120.00  -0.31137  0.84484  -0.32492
   130.00  -0.37971  0.70609  -0.31454
   140.00  -0.42420  0.55632  -0.30596
   150.00  -0.45708  0.41454  -0.31106
   160.00  -0.50866  0.29836  -0.36109
   170.00  -0.25399  0.22234  -0.32240
   180.00  0.00004  0.19584  -0.00004
EOT
