AeroDyn airfoil file.  Compatible with AeroDyn v13.0.
Interpolated thickness: 0.838

  1        Number of airfoil tables in this file
  9990     Reynolds number in millions.  For efficiency, make very large if only one table.
  0        Control setting
  10.669   Stall angle (deg)
  -2.97424 Zero lift angle of attack (deg)
  1.66762  Cn slope for zero lift (dimensionless)
  0.397091 Cn at stall value for positive angle of attack
  -0.8     Cn at stall value for negative angle of attack
  -2.12    Angle of attack for minimum CD (deg)
  0.277633 Minimum CD value
  -180.00  0.00008  0.29903  -0.00008
  -170.00  0.08406  0.30779  0.08518
  -160.00  0.16826  0.33293  -0.03060
  -150.00  0.15121  0.37134  -0.01351
  -140.00  0.14034  0.41821  -0.00159
  -130.00  0.12563  0.46773  0.00994
  -120.00  0.10303  0.51360  0.02139
  -110.00  0.07298  0.55001  0.03200
  -100.00  0.03738  0.57224  0.04070
   -90.00  0.00008  0.57723  0.04641
   -80.00  -0.03722  0.57224  0.05063
   -70.00  -0.07282  0.55001  0.05140
   -60.00  -0.10288  0.51360  0.04942
   -50.00  -0.12547  0.46773  0.04596
   -40.00  -0.14018  0.41821  0.04315
   -30.00  -0.15105  0.37134  0.04483
   -20.00  -0.16768  0.33288  0.06120
   -10.00  -0.06856  0.29799  0.02701
    -4.17  -0.01527  0.27768  -0.02877
    -3.17  0.00903  0.27765  -0.02920
    -2.12  0.03418  0.27763  -0.02954
    -1.08  0.05955  0.27763  -0.02992
    -0.05  0.08470  0.27765  -0.03013
    -0.01  0.08476  0.27765  -0.03013
     1.15  0.11447  0.27770  -0.03041
     2.30  0.14246  0.27774  -0.03064
     3.45  0.17054  0.27781  -0.03080
     4.60  0.19773  0.27787  -0.03076
     5.75  0.22406  0.27795  -0.03057
     6.90  0.24902  0.27808  -0.03011
     8.05  0.26951  0.27823  -0.02885
    10.67  0.27882  0.28093  -0.02244
    13.29  0.24405  0.29980  -0.02073
    15.91  0.23566  0.31148  -0.02255
    18.54  0.24104  0.32311  -0.02537
    21.16  0.23970  0.33771  -0.02996
    23.78  0.23255  0.34778  -0.03579
    26.40  0.22539  0.35784  -0.04162
    29.02  0.21823  0.36791  -0.04746
    31.65  0.21315  0.37941  -0.05175
    34.27  0.20915  0.39165  -0.05525
    36.89  0.20514  0.40388  -0.05874
    39.51  0.20113  0.41612  -0.06224
    42.13  0.19588  0.42894  -0.06523
    44.76  0.19037  0.44187  -0.06813
    47.38  0.18485  0.45480  -0.07102
    50.00  0.17934  0.46773  -0.07392
    60.00  0.14716  0.51360  -0.08379
    70.00  0.10410  0.55001  -0.09238
    80.00  0.05337  0.57224  -0.09943
    90.00  0.00008  0.57723  -0.10450
   100.00  -0.03722  0.57224  -0.10870
   110.00  -0.07282  0.55001  -0.10949
   120.00  -0.10288  0.51360  -0.10749
   130.00  -0.12547  0.46773  -0.10406
   140.00  -0.14018  0.41821  -0.10122
   150.00  -0.15105  0.37134  -0.10291
   160.00  -0.16810  0.33293  -0.11945
   170.00  -0.08391  0.30779  -0.10666
   180.00  0.00008  0.29903  -0.00008
EOT
