AeroDyn airfoil file.  Compatible with AeroDyn v13.0.
Interpolated thickness: 0.911

  1        Number of airfoil tables in this file
  9990     Reynolds number in millions.  For efficiency, make very large if only one table.
  0        Control setting
  10.6492  Stall angle (deg)
  -2.53549 Zero lift angle of attack (deg)
  1.07577  Cn slope for zero lift (dimensionless)
  0.247551 Cn at stall value for positive angle of attack
  -0.8     Cn at stall value for negative angle of attack
  -2.12    Angle of attack for minimum CD (deg)
  0.310243 Minimum CD value
  -180.00  0.00009  0.32200  -0.00009
  -170.00  0.04623  0.32681  0.04675
  -160.00  0.09248  0.34062  -0.01686
  -150.00  0.08312  0.36172  -0.00747
  -140.00  0.07714  0.38747  -0.00092
  -130.00  0.06906  0.41468  0.00542
  -120.00  0.05665  0.43988  0.01170
  -110.00  0.04014  0.45988  0.01754
  -100.00  0.02058  0.47209  0.02231
   -90.00  0.00009  0.47483  0.02545
   -80.00  -0.02041  0.47209  0.02777
   -70.00  -0.03996  0.45988  0.02819
   -60.00  -0.05647  0.43988  0.02710
   -50.00  -0.06889  0.41468  0.02521
   -40.00  -0.07697  0.38747  0.02366
   -30.00  -0.08294  0.36172  0.02459
   -20.00  -0.09207  0.34060  0.03358
   -10.00  -0.03762  0.32143  0.01480
    -4.17  -0.00834  0.31027  -0.01585
    -3.17  0.00501  0.31025  -0.01608
    -2.12  0.01883  0.31024  -0.01627
    -1.08  0.03276  0.31024  -0.01648
    -0.05  0.04658  0.31025  -0.01660
    -0.01  0.04661  0.31025  -0.01660
     1.15  0.06294  0.31028  -0.01675
     2.29  0.07831  0.31030  -0.01688
     3.44  0.09373  0.31034  -0.01697
     4.59  0.10867  0.31037  -0.01695
     5.73  0.12314  0.31042  -0.01684
     6.88  0.13685  0.31049  -0.01659
     8.03  0.14811  0.31057  -0.01590
    10.65  0.15323  0.31205  -0.01237
    13.27  0.13412  0.32242  -0.01144
    15.90  0.12951  0.32884  -0.01243
    18.52  0.13247  0.33523  -0.01398
    21.14  0.13173  0.34325  -0.01650
    23.77  0.12780  0.34878  -0.01971
    26.39  0.12387  0.35431  -0.02291
    29.01  0.11994  0.35984  -0.02612
    31.64  0.11715  0.36615  -0.02848
    34.26  0.11495  0.37288  -0.03040
    36.88  0.11274  0.37960  -0.03232
    39.51  0.11054  0.38633  -0.03424
    42.13  0.10766  0.39337  -0.03588
    44.75  0.10463  0.40047  -0.03747
    47.38  0.10160  0.40757  -0.03906
    50.00  0.09857  0.41468  -0.04065
    60.00  0.08089  0.43988  -0.04608
    70.00  0.05724  0.45988  -0.05079
    80.00  0.02936  0.47209  -0.05467
    90.00  0.00009  0.47483  -0.05746
   100.00  -0.02041  0.47209  -0.05977
   110.00  -0.03996  0.45988  -0.06020
   120.00  -0.05647  0.43988  -0.05910
   130.00  -0.06889  0.41468  -0.05721
   140.00  -0.07697  0.38747  -0.05565
   150.00  -0.08294  0.36172  -0.05658
   160.00  -0.09231  0.34062  -0.06567
   170.00  -0.04605  0.32681  -0.05864
   180.00  0.00009  0.32200  -0.00009
EOT
