AeroDyn airfoil file.  Compatible with AeroDyn v13.0.
Interpolated thickness: 0.644

  1        Number of airfoil tables in this file
  9990     Reynolds number in millions.  For efficiency, make very large if only one table.
  0        Control setting
  10.7216  Stall angle (deg)
  -3.3013  Zero lift angle of attack (deg)
  3.26574  Cn slope for zero lift (dimensionless)
  0.799276 Cn at stall value for positive angle of attack
  -0.8     Cn at stall value for negative angle of attack
  -2.12    Angle of attack for minimum CD (deg)
  0.190971 Minimum CD value
  -180.00  0.00005  0.23800  -0.00005
  -170.00  0.18461  0.25725  0.18732
  -160.00  0.36964  0.31248  -0.06713
  -150.00  0.33216  0.39689  -0.02956
  -140.00  0.30827  0.49989  -0.00338
  -130.00  0.27595  0.60871  0.02196
  -120.00  0.22630  0.70951  0.04712
  -110.00  0.16025  0.78952  0.07044
  -100.00  0.08203  0.83838  0.08956
   -90.00  0.00005  0.84934  0.10211
   -80.00  -0.08192  0.83838  0.11138
   -70.00  -0.16015  0.78952  0.11307
   -60.00  -0.22619  0.70951  0.10871
   -50.00  -0.27585  0.60871  0.10113
   -40.00  -0.30817  0.49989  0.09494
   -30.00  -0.33206  0.39689  0.09864
   -20.00  -0.36859  0.31239  0.13462
   -10.00  -0.15078  0.23571  0.05948
    -4.17  -0.03367  0.19106  -0.06310
    -3.17  0.01973  0.19102  -0.06404
    -2.12  0.07500  0.19097  -0.06479
    -1.08  0.13074  0.19097  -0.06563
    -0.05  0.18602  0.19102  -0.06610
    -0.02  0.18614  0.19102  -0.06610
     1.16  0.25144  0.19112  -0.06670
     2.32  0.31294  0.19120  -0.06722
     3.47  0.37464  0.19136  -0.06757
     4.63  0.43440  0.19149  -0.06748
     5.79  0.49225  0.19167  -0.06706
     6.95  0.54710  0.19196  -0.06606
     8.10  0.59214  0.19228  -0.06329
    10.72  0.61261  0.19822  -0.04920
    13.34  0.53618  0.23968  -0.04544
    15.96  0.51776  0.26534  -0.04943
    18.58  0.52957  0.29091  -0.05562
    21.20  0.52663  0.32300  -0.06572
    23.81  0.51091  0.34512  -0.07853
    26.43  0.49518  0.36723  -0.09135
    29.05  0.47946  0.38935  -0.10417
    31.67  0.46829  0.41462  -0.11360
    34.29  0.45948  0.44152  -0.12128
    36.91  0.45068  0.46841  -0.12897
    39.53  0.44187  0.49531  -0.13665
    42.14  0.43032  0.52347  -0.14323
    44.76  0.41821  0.55188  -0.14959
    47.38  0.40610  0.58029  -0.15595
    50.00  0.39400  0.60871  -0.16231
    60.00  0.32326  0.70951  -0.18400
    70.00  0.22864  0.78952  -0.20288
    80.00  0.11716  0.83838  -0.21838
    90.00  0.00005  0.84934  -0.22953
   100.00  -0.08192  0.83838  -0.23876
   110.00  -0.16015  0.78952  -0.24049
   120.00  -0.22619  0.70951  -0.23609
   130.00  -0.27585  0.60871  -0.22855
   140.00  -0.30817  0.49989  -0.22232
   150.00  -0.33206  0.39689  -0.22602
   160.00  -0.36953  0.31248  -0.26237
   170.00  -0.18450  0.25725  -0.23426
   180.00  0.00005  0.23800  -0.00005
EOT
