AeroDyn airfoil file.  Compatible with AeroDyn v13.0.
Interpolated thickness: 0.61

  1        Number of airfoil tables in this file
  9990     Reynolds number in millions.  For efficiency, make very large if only one table.
  0        Control setting
  10.7308  Stall angle (deg)
  -3.33923 Zero lift angle of attack (deg)
  3.5383   Cn slope for zero lift (dimensionless)
  0.868897 Cn at stall value for positive angle of attack
  -0.8     Cn at stall value for negative angle of attack
  -2.12    Angle of attack for minimum CD (deg)
  0.175783 Minimum CD value
  -180.00  0.00005  0.22730  -0.00005
  -170.00  0.20223  0.24839  0.20521
  -160.00  0.40493  0.30890  -0.07353
  -150.00  0.36388  0.40137  -0.03238
  -140.00  0.33771  0.51421  -0.00369
  -130.00  0.30230  0.63342  0.02407
  -120.00  0.24790  0.74385  0.05163
  -110.00  0.17555  0.83150  0.07718
  -100.00  0.08985  0.88502  0.09812
   -90.00  0.00005  0.89703  0.11187
   -80.00  -0.08975  0.88502  0.12203
   -70.00  -0.17545  0.83150  0.12388
   -60.00  -0.24781  0.74385  0.11911
   -50.00  -0.30220  0.63342  0.11079
   -40.00  -0.33761  0.51421  0.10402
   -30.00  -0.36378  0.40137  0.10807
   -20.00  -0.40381  0.30879  0.14748
   -10.00  -0.16519  0.22479  0.06517
    -4.17  -0.03690  0.17589  -0.06912
    -3.17  0.02160  0.17583  -0.07015
    -2.12  0.08215  0.17578  -0.07097
    -1.08  0.14322  0.17578  -0.07189
    -0.05  0.20377  0.17583  -0.07240
    -0.02  0.20391  0.17583  -0.07241
     1.16  0.27545  0.17595  -0.07306
     2.32  0.34282  0.17604  -0.07363
     3.48  0.41041  0.17621  -0.07401
     4.64  0.47587  0.17636  -0.07392
     5.79  0.53925  0.17655  -0.07346
     6.95  0.59934  0.17687  -0.07236
     8.11  0.64868  0.17722  -0.06932
    10.73  0.67110  0.18372  -0.05389
    13.35  0.58738  0.22914  -0.04978
    15.97  0.56720  0.25726  -0.05414
    18.58  0.58014  0.28527  -0.06093
    21.20  0.57692  0.32042  -0.07198
    23.82  0.55969  0.34465  -0.08602
    26.44  0.54246  0.36888  -0.10007
    29.06  0.52524  0.39311  -0.11411
    31.67  0.51300  0.42079  -0.12444
    34.29  0.50336  0.45026  -0.13286
    36.91  0.49371  0.47972  -0.14127
    39.53  0.48406  0.50919  -0.14969
    42.15  0.47141  0.54003  -0.15690
    44.76  0.45815  0.57116  -0.16387
    47.38  0.44488  0.60229  -0.17084
    50.00  0.43161  0.63342  -0.17781
    60.00  0.35413  0.74385  -0.20157
    70.00  0.25047  0.83150  -0.22225
    80.00  0.12834  0.88502  -0.23923
    90.00  0.00005  0.89703  -0.25144
   100.00  -0.08975  0.88502  -0.26155
   110.00  -0.17545  0.83150  -0.26345
   120.00  -0.24781  0.74385  -0.25863
   130.00  -0.30220  0.63342  -0.25037
   140.00  -0.33761  0.51421  -0.24354
   150.00  -0.36378  0.40137  -0.24760
   160.00  -0.40483  0.30890  -0.28742
   170.00  -0.20214  0.24839  -0.25663
   180.00  0.00005  0.22730  -0.00005
EOT
