AeroDyn airfoil file.  Compatible with AeroDyn v13.0.
Interpolated thickness: 0.99

  1        Number of airfoil tables in this file
  9990     Reynolds number in millions.  For efficiency, make very large if only one table.
  0        Control setting
  10.6277  Stall angle (deg)
  -0.722761 Zero lift angle of attack (deg)
  0.431524 Cn slope for zero lift (dimensionless)
  0.0854863 Cn at stall value for positive angle of attack
  -0.8     Cn at stall value for negative angle of attack
  -2.12    Angle of attack for minimum CD (deg)
  0.345533 Minimum CD value
  -180.00  0.00010  0.34685  -0.00010
  -170.00  0.00528  0.34739  0.00516
  -160.00  0.01048  0.34895  -0.00198
  -150.00  0.00943  0.35132  -0.00093
  -140.00  0.00876  0.35421  -0.00019
  -130.00  0.00785  0.35727  0.00052
  -120.00  0.00645  0.36010  0.00123
  -110.00  0.00460  0.36235  0.00188
  -100.00  0.00240  0.36372  0.00242
   -90.00  0.00010  0.36403  0.00277
   -80.00  -0.00220  0.36372  0.00303
   -70.00  -0.00440  0.36235  0.00308
   -60.00  -0.00626  0.36010  0.00296
   -50.00  -0.00765  0.35727  0.00274
   -40.00  -0.00856  0.35421  0.00257
   -30.00  -0.00923  0.35132  0.00267
   -20.00  -0.01026  0.34894  0.00368
   -10.00  -0.00414  0.34679  0.00157
    -4.17  -0.00085  0.34554  -0.00187
    -3.17  0.00065  0.34553  -0.00190
    -2.12  0.00220  0.34553  -0.00192
    -1.08  0.00377  0.34553  -0.00194
    -0.05  0.00532  0.34553  -0.00195
    -0.00  0.00533  0.34553  -0.00195
     1.14  0.00716  0.34554  -0.00197
     2.29  0.00889  0.34554  -0.00199
     3.43  0.01062  0.34554  -0.00200
     4.57  0.01230  0.34555  -0.00199
     5.72  0.01392  0.34555  -0.00198
     6.86  0.01547  0.34556  -0.00195
     8.00  0.01673  0.34557  -0.00188
    10.63  0.01731  0.34574  -0.00148
    13.25  0.01516  0.34690  -0.00137
    15.88  0.01464  0.34762  -0.00149
    18.50  0.01497  0.34834  -0.00166
    21.13  0.01489  0.34924  -0.00194
    23.75  0.01445  0.34986  -0.00230
    26.38  0.01401  0.35048  -0.00266
    29.00  0.01357  0.35111  -0.00302
    31.63  0.01325  0.35182  -0.00329
    34.25  0.01300  0.35257  -0.00350
    36.88  0.01276  0.35333  -0.00372
    39.50  0.01251  0.35408  -0.00394
    42.13  0.01218  0.35487  -0.00412
    44.75  0.01184  0.35567  -0.00430
    47.38  0.01150  0.35647  -0.00448
    50.00  0.01116  0.35727  -0.00466
    60.00  0.00918  0.36010  -0.00527
    70.00  0.00652  0.36235  -0.00580
    80.00  0.00339  0.36372  -0.00623
    90.00  0.00010  0.36403  -0.00654
   100.00  -0.00220  0.36372  -0.00680
   110.00  -0.00440  0.36235  -0.00685
   120.00  -0.00626  0.36010  -0.00673
   130.00  -0.00765  0.35727  -0.00652
   140.00  -0.00856  0.35421  -0.00634
   150.00  -0.00923  0.35132  -0.00645
   160.00  -0.01028  0.34895  -0.00747
   170.00  -0.00509  0.34739  -0.00668
   180.00  0.00010  0.34685  -0.00010
EOT
