AeroDyn airfoil file.  Compatible with AeroDyn v13.0.
Interpolated thickness: 0.216

  1        Number of airfoil tables in this file
  9990     Reynolds number in millions.  For efficiency, make very large if only one table.
  0        Control setting
  8.94751  Stall angle (deg)
  -4.19376 Zero lift angle of attack (deg)
  6.38877  Cn slope for zero lift (dimensionless)
  1.46532  Cn at stall value for positive angle of attack
  -0.8     Cn at stall value for negative angle of attack
  -2.02    Angle of attack for minimum CD (deg)
  0.00923143 Minimum CD value
  -180.00  0.00000  0.13836  0.00000
  -170.00  0.39640  0.17902  0.40000
  -160.00  0.79380  0.29568  -0.14128
  -150.00  0.70969  0.47386  -0.06262
  -140.00  0.65869  0.69102  -0.00703
  -130.00  0.58934  0.91992  0.04676
  -120.00  0.48334  1.13121  0.09981
  -110.00  0.34200  1.29769  0.14844
  -100.00  0.17500  1.39737  0.18770
   -90.00  0.00000  1.41600  0.21261
   -80.00  -0.17500  1.39737  0.23286
   -70.00  -0.34200  1.29769  0.23697
   -60.00  -0.48334  1.13121  0.22809
   -50.00  -0.58934  0.91992  0.21209
   -40.00  -0.65869  0.69102  0.19869
   -30.00  -0.70969  0.47386  0.20566
   -20.00  -0.79214  0.29545  0.28136
   -10.00  -0.30211  0.10555  0.10125
    -6.04  -0.12504  0.03044  -0.08328
    -5.04  -0.05434  0.01871  -0.11638
    -4.09  0.01251  0.00929  -0.14297
    -3.02  0.13193  0.00925  -0.14474
    -2.02  0.24226  0.00923  -0.14596
    -1.03  0.35271  0.00927  -0.14720
    -0.03  0.46369  0.00940  -0.14817
     1.13  0.59456  0.00962  -0.14895
     2.26  0.71989  0.00989  -0.14982
     3.39  0.84452  0.01027  -0.15046
     4.52  0.96352  0.01060  -0.14967
     5.66  1.07860  0.01114  -0.14813
     6.79  1.17794  0.01176  -0.14381
     8.95  1.26805  0.01867  -0.12433
    11.11  1.23396  0.05554  -0.10992
    13.27  1.25202  0.09787  -0.10929
    15.43  1.25134  0.14128  -0.11048
    17.59  1.20332  0.21488  -0.12306
    19.75  1.17129  0.27971  -0.13639
    21.91  1.11866  0.32977  -0.16223
    24.07  1.09058  0.36833  -0.18428
    26.23  1.06250  0.40690  -0.20634
    28.39  1.03442  0.44546  -0.22839
    30.55  1.01079  0.48711  -0.24713
    32.71  0.99377  0.53311  -0.26136
    34.88  0.97813  0.58000  -0.27471
    37.04  0.96250  0.62688  -0.28807
    39.20  0.94686  0.67376  -0.30142
    41.36  0.92754  0.72227  -0.31333
    43.52  0.90599  0.77169  -0.32441
    45.68  0.88444  0.82110  -0.33549
    47.84  0.86289  0.87051  -0.34657
    50.00  0.84134  0.91992  -0.35765
    60.00  0.69034  1.13121  -0.40299
    70.00  0.48834  1.29769  -0.44202
    80.00  0.25000  1.39737  -0.47347
    90.00  0.00000  1.41600  -0.49539
   100.00  -0.17500  1.39737  -0.51557
   110.00  -0.34200  1.29769  -0.51975
   120.00  -0.48334  1.13121  -0.51079
   130.00  -0.58934  0.91992  -0.49486
   140.00  -0.65869  0.69102  -0.48139
   150.00  -0.70969  0.47386  -0.48837
   160.00  -0.79380  0.29568  -0.56470
   170.00  -0.39640  0.17902  -0.50000
   180.00  0.00000  0.13836  0.00000
EOT
