AeroDyn airfoil file.  Compatible with AeroDyn v13.0.
Interpolated thickness: 0.588

  1        Number of airfoil tables in this file
  9990     Reynolds number in millions.  For efficiency, make very large if only one table.
  0        Control setting
  10.7368  Stall angle (deg)
  -3.36142 Zero lift angle of attack (deg)
  3.71412  Cn slope for zero lift (dimensionless)
  0.913899 Cn at stall value for positive angle of attack
  -0.8     Cn at stall value for negative angle of attack
  -2.12    Angle of attack for minimum CD (deg)
  0.165955 Minimum CD value
  -180.00  0.00005  0.22038  -0.00005
  -170.00  0.21364  0.24266  0.21680
  -160.00  0.42777  0.30658  -0.07768
  -150.00  0.38440  0.40426  -0.03420
  -140.00  0.35675  0.52347  -0.00389
  -130.00  0.31935  0.64940  0.02543
  -120.00  0.26188  0.76607  0.05454
  -110.00  0.18545  0.85866  0.08154
  -100.00  0.09491  0.91520  0.10366
   -90.00  0.00005  0.92788  0.11819
   -80.00  -0.09482  0.91520  0.12892
   -70.00  -0.18535  0.85866  0.13087
   -60.00  -0.26179  0.76607  0.12583
   -50.00  -0.31925  0.64940  0.11705
   -40.00  -0.35666  0.52347  0.10989
   -30.00  -0.38431  0.40426  0.11418
   -20.00  -0.42659  0.30647  0.15581
   -10.00  -0.17451  0.21773  0.06886
    -4.17  -0.03899  0.16606  -0.07301
    -3.17  0.02281  0.16601  -0.07410
    -2.12  0.08678  0.16596  -0.07496
    -1.08  0.15129  0.16596  -0.07594
    -0.05  0.21526  0.16601  -0.07648
    -0.03  0.21541  0.16601  -0.07648
     1.16  0.29098  0.16613  -0.07718
     2.32  0.36215  0.16622  -0.07778
     3.48  0.43356  0.16641  -0.07818
     4.64  0.50271  0.16656  -0.07808
     5.80  0.56967  0.16676  -0.07759
     6.96  0.63314  0.16710  -0.07643
     8.12  0.68527  0.16747  -0.07323
    10.74  0.70896  0.17434  -0.05692
    13.35  0.62051  0.22232  -0.05258
    15.97  0.59919  0.25203  -0.05719
    18.59  0.61286  0.28161  -0.06436
    21.21  0.60946  0.31875  -0.07604
    23.82  0.59126  0.34435  -0.09087
    26.44  0.57306  0.36994  -0.10571
    29.06  0.55486  0.39554  -0.12054
    31.68  0.54194  0.42478  -0.13146
    34.29  0.53175  0.45591  -0.14035
    36.91  0.52155  0.48704  -0.14924
    39.53  0.51136  0.51817  -0.15813
    42.15  0.49800  0.55075  -0.16575
    44.76  0.48398  0.58364  -0.17311
    47.38  0.46997  0.61652  -0.18047
    50.00  0.45596  0.64940  -0.18783
    60.00  0.37410  0.76607  -0.21293
    70.00  0.26459  0.85866  -0.23478
    80.00  0.13557  0.91520  -0.25272
    90.00  0.00005  0.92788  -0.26562
   100.00  -0.09482  0.91520  -0.27630
   110.00  -0.18535  0.85866  -0.27831
   120.00  -0.26179  0.76607  -0.27321
   130.00  -0.31925  0.64940  -0.26448
   140.00  -0.35666  0.52347  -0.25727
   150.00  -0.38431  0.40426  -0.26156
   160.00  -0.42768  0.30658  -0.30362
   170.00  -0.21354  0.24266  -0.27110
   180.00  0.00005  0.22038  -0.00005
EOT
