AeroDyn airfoil file.  Compatible with AeroDyn v13.0.
Interpolated thickness: 0.38

  1        Number of airfoil tables in this file
  9990     Reynolds number in millions.  For efficiency, make very large if only one table.
  0        Control setting
  10.7933  Stall angle (deg)
  -3.5162  Zero lift angle of attack (deg)
  5.35577  Cn slope for zero lift (dimensionless)
  1.33759  Cn at stall value for positive angle of attack
  -0.8     Cn at stall value for negative angle of attack
  -2.12    Angle of attack for minimum CD (deg)
  0.0730395 Minimum CD value
  -180.00  0.00002  0.15494  -0.00002
  -170.00  0.32144  0.18847  0.32630
  -160.00  0.64368  0.28466  -0.11684
  -150.00  0.57841  0.43166  -0.05141
  -140.00  0.53681  0.61105  -0.00581
  -130.00  0.48052  0.80056  0.03832
  -120.00  0.39404  0.97612  0.08213
  -110.00  0.27902  1.11546  0.12276
  -100.00  0.14278  1.20054  0.15604
   -90.00  0.00002  1.21963  0.17791
   -80.00  -0.14274  1.20054  0.19406
   -70.00  -0.27898  1.11546  0.19699
   -60.00  -0.39401  0.97612  0.18941
   -50.00  -0.48048  0.80056  0.17619
   -40.00  -0.53677  0.61105  0.16542
   -30.00  -0.57838  0.43166  0.17187
   -20.00  -0.64201  0.28449  0.23452
   -10.00  -0.26267  0.15095  0.10367
    -4.17  -0.05872  0.07320  -0.10982
    -3.17  0.03428  0.07312  -0.11146
    -2.12  0.13054  0.07304  -0.11276
    -1.08  0.22762  0.07304  -0.11423
    -0.05  0.32389  0.07312  -0.11504
    -0.04  0.32411  0.07312  -0.11505
     1.17  0.43783  0.07330  -0.11609
     2.34  0.54494  0.07344  -0.11699
     3.51  0.65239  0.07372  -0.11760
     4.67  0.75646  0.07395  -0.11745
     5.84  0.85721  0.07425  -0.11672
     7.01  0.95274  0.07477  -0.11497
     8.18  1.03118  0.07532  -0.11015
    10.79  1.06682  0.08566  -0.08561
    13.41  0.93372  0.15786  -0.07907
    16.02  0.90164  0.20257  -0.08601
    18.63  0.92221  0.24709  -0.09680
    21.25  0.91710  0.30298  -0.11437
    23.86  0.88971  0.34150  -0.13670
    26.48  0.86232  0.38001  -0.15902
    29.09  0.83493  0.41853  -0.18135
    31.70  0.81549  0.46254  -0.19777
    34.32  0.80015  0.50938  -0.21115
    36.93  0.78481  0.55623  -0.22453
    39.54  0.76947  0.60307  -0.23791
    42.16  0.74937  0.65210  -0.24938
    44.77  0.72828  0.70159  -0.26045
    47.39  0.70719  0.75108  -0.27153
    50.00  0.68610  0.80056  -0.28261
    60.00  0.56291  0.97612  -0.32038
    70.00  0.39812  1.11546  -0.35326
    80.00  0.20397  1.20054  -0.38026
    90.00  0.00002  1.21963  -0.39967
   100.00  -0.14274  1.20054  -0.41574
   110.00  -0.27898  1.11546  -0.41876
   120.00  -0.39401  0.97612  -0.41109
   130.00  -0.48048  0.80056  -0.39796
   140.00  -0.53677  0.61105  -0.38711
   150.00  -0.57838  0.43166  -0.39356
   160.00  -0.64364  0.28466  -0.45686
   170.00  -0.32140  0.18847  -0.40791
   180.00  0.00002  0.15494  -0.00002
EOT
