AeroDyn airfoil file.  Compatible with AeroDyn v13.0.
Interpolated thickness: 0.488

  1        Number of airfoil tables in this file
  9990     Reynolds number in millions.  For efficiency, make very large if only one table.
  0        Control setting
  10.7639  Stall angle (deg)
  -3.44551 Zero lift angle of attack (deg)
  4.50802  Cn slope for zero lift (dimensionless)
  1.118    Cn at stall value for positive angle of attack
  -0.8     Cn at stall value for negative angle of attack
  -2.12    Angle of attack for minimum CD (deg)
  0.121284 Minimum CD value
  -180.00  0.00003  0.18892  -0.00003
  -170.00  0.26546  0.21661  0.26944
  -160.00  0.53157  0.29604  -0.09650
  -150.00  0.47767  0.41744  -0.04247
  -140.00  0.44332  0.56558  -0.00482
  -130.00  0.39683  0.72208  0.03163
  -120.00  0.32542  0.86705  0.06781
  -110.00  0.23043  0.98212  0.10136
  -100.00  0.11793  1.05238  0.12884
   -90.00  0.00003  1.06815  0.14690
   -80.00  -0.11786  1.05238  0.16024
   -70.00  -0.23037  0.98212  0.16266
   -60.00  -0.32536  0.86705  0.15640
   -50.00  -0.39677  0.72208  0.14548
   -40.00  -0.44325  0.56558  0.13659
   -30.00  -0.47761  0.41744  0.14191
   -20.00  -0.53016  0.29590  0.19365
   -10.00  -0.21689  0.18562  0.08559
    -4.17  -0.04847  0.12142  -0.09071
    -3.17  0.02833  0.12135  -0.09206
    -2.12  0.10782  0.12128  -0.09314
    -1.08  0.18799  0.12128  -0.09435
    -0.05  0.26749  0.12135  -0.09502
    -0.03  0.26767  0.12135  -0.09502
     1.16  0.36158  0.12150  -0.09589
     2.33  0.45003  0.12162  -0.09663
     3.49  0.53876  0.12185  -0.09713
     4.66  0.62471  0.12204  -0.09701
     5.82  0.70791  0.12229  -0.09640
     6.98  0.78680  0.12271  -0.09496
     8.15  0.85157  0.12317  -0.09098
    10.76  0.88101  0.13170  -0.07071
    13.38  0.77109  0.19133  -0.06532
    16.00  0.74459  0.22825  -0.07105
    18.61  0.76159  0.26502  -0.07996
    21.23  0.75736  0.31117  -0.09447
    23.84  0.73475  0.34298  -0.11290
    26.46  0.71213  0.37479  -0.13134
    29.07  0.68951  0.40659  -0.14977
    31.69  0.67345  0.44293  -0.16334
    34.31  0.66079  0.48162  -0.17439
    36.92  0.64812  0.52030  -0.18544
    39.54  0.63545  0.55899  -0.19648
    42.15  0.61885  0.59948  -0.20595
    44.77  0.60143  0.64035  -0.21510
    47.38  0.58402  0.68121  -0.22425
    50.00  0.56660  0.72208  -0.23340
    60.00  0.46487  0.86705  -0.26459
    70.00  0.32879  0.98212  -0.29174
    80.00  0.16845  1.05238  -0.31404
    90.00  0.00003  1.06815  -0.33007
   100.00  -0.11786  1.05238  -0.34334
   110.00  -0.23037  0.98212  -0.34583
   120.00  -0.32536  0.86705  -0.33950
   130.00  -0.39677  0.72208  -0.32866
   140.00  -0.44325  0.56558  -0.31970
   150.00  -0.47761  0.41744  -0.32502
   160.00  -0.53150  0.29604  -0.37730
   170.00  -0.26540  0.21661  -0.33687
   180.00  0.00003  0.18892  -0.00003
EOT
