AeroDyn airfoil file.  Compatible with AeroDyn v13.0.
Interpolated thickness: 0.876

  1        Number of airfoil tables in this file
  9990     Reynolds number in millions.  For efficiency, make very large if only one table.
  0        Control setting
  10.6587  Stall angle (deg)
  -2.79267 Zero lift angle of attack (deg)
  1.35995  Cn slope for zero lift (dimensionless)
  0.319274 Cn at stall value for positive angle of attack
  -0.8     Cn at stall value for negative angle of attack
  -2.12    Angle of attack for minimum CD (deg)
  0.294608 Minimum CD value
  -180.00  0.00008  0.31099  -0.00008
  -170.00  0.06437  0.31769  0.06518
  -160.00  0.12882  0.33693  -0.02345
  -150.00  0.11576  0.36633  -0.01036
  -140.00  0.10744  0.40221  -0.00124
  -130.00  0.09618  0.44011  0.00758
  -120.00  0.07889  0.47522  0.01635
  -110.00  0.05588  0.50309  0.02447
  -100.00  0.02864  0.52011  0.03113
   -90.00  0.00008  0.52393  0.03550
   -80.00  -0.02847  0.52011  0.03873
   -70.00  -0.05572  0.50309  0.03932
   -60.00  -0.07872  0.47522  0.03780
   -50.00  -0.09602  0.44011  0.03516
   -40.00  -0.10727  0.40221  0.03300
   -30.00  -0.11560  0.36633  0.03429
   -20.00  -0.12832  0.33690  0.04682
   -10.00  -0.05245  0.31019  0.02065
    -4.17  -0.01166  0.29464  -0.02204
    -3.17  0.00694  0.29462  -0.02237
    -2.12  0.02619  0.29461  -0.02263
    -1.08  0.04560  0.29461  -0.02293
    -0.05  0.06486  0.29462  -0.02309
    -0.01  0.06490  0.29462  -0.02309
     1.15  0.08765  0.29466  -0.02330
     2.30  0.10907  0.29469  -0.02348
     3.44  0.13056  0.29474  -0.02360
     4.59  0.15137  0.29479  -0.02357
     5.74  0.17152  0.29485  -0.02342
     6.89  0.19063  0.29495  -0.02307
     8.04  0.20632  0.29506  -0.02211
    10.66  0.21344  0.29713  -0.01720
    13.28  0.18682  0.31157  -0.01589
    15.90  0.18041  0.32051  -0.01728
    18.53  0.18452  0.32942  -0.01944
    21.15  0.18350  0.34060  -0.02295
    23.77  0.17802  0.34830  -0.02742
    26.40  0.17254  0.35600  -0.03188
    29.02  0.16707  0.36371  -0.03635
    31.64  0.16318  0.37251  -0.03963
    34.26  0.16011  0.38188  -0.04231
    36.89  0.15704  0.39125  -0.04499
    39.51  0.15397  0.40061  -0.04766
    42.13  0.14995  0.41042  -0.04996
    44.75  0.14574  0.42032  -0.05217
    47.38  0.14152  0.43022  -0.05439
    50.00  0.13730  0.44011  -0.05660
    60.00  0.11266  0.47522  -0.06416
    70.00  0.07970  0.50309  -0.07073
    80.00  0.04087  0.52011  -0.07613
    90.00  0.00008  0.52393  -0.08001
   100.00  -0.02847  0.52011  -0.08323
   110.00  -0.05572  0.50309  -0.08383
   120.00  -0.07872  0.47522  -0.08230
   130.00  -0.09602  0.44011  -0.07967
   140.00  -0.10727  0.40221  -0.07750
   150.00  -0.11560  0.36633  -0.07879
   160.00  -0.12865  0.33693  -0.09145
   170.00  -0.06420  0.31769  -0.08166
   180.00  0.00008  0.31099  -0.00008
EOT
