AeroDyn airfoil file.  Compatible with AeroDyn v13.0.
Interpolated thickness: 0.658

  1        Number of airfoil tables in this file
  9990     Reynolds number in millions.  For efficiency, make very large if only one table.
  0        Control setting
  10.7178  Stall angle (deg)
  -3.28416 Zero lift angle of attack (deg)
  3.15321  Cn slope for zero lift (dimensionless)
  0.770583 Cn at stall value for positive angle of attack
  -0.8     Cn at stall value for negative angle of attack
  -2.12    Angle of attack for minimum CD (deg)
  0.197225 Minimum CD value
  -180.00  0.00005  0.24240  -0.00005
  -170.00  0.17736  0.26090  0.17995
  -160.00  0.35511  0.31395  -0.06450
  -150.00  0.31911  0.39504  -0.02841
  -140.00  0.29616  0.49400  -0.00325
  -130.00  0.26511  0.59854  0.02110
  -120.00  0.21741  0.69538  0.04526
  -110.00  0.15396  0.77224  0.06767
  -100.00  0.07881  0.81917  0.08603
   -90.00  0.00005  0.82970  0.09809
   -80.00  -0.07870  0.81917  0.10700
   -70.00  -0.15385  0.77224  0.10862
   -60.00  -0.21730  0.69538  0.10444
   -50.00  -0.26499  0.59854  0.09715
   -40.00  -0.29605  0.49400  0.09121
   -30.00  -0.31900  0.39504  0.09476
   -20.00  -0.35410  0.31387  0.12932
   -10.00  -0.14485  0.24020  0.05714
    -4.17  -0.03235  0.19731  -0.06063
    -3.17  0.01896  0.19727  -0.06153
    -2.12  0.07206  0.19722  -0.06225
    -1.08  0.12561  0.19722  -0.06306
    -0.05  0.17871  0.19727  -0.06351
    -0.02  0.17883  0.19727  -0.06351
     1.16  0.24156  0.19737  -0.06408
     2.31  0.30064  0.19745  -0.06458
     3.47  0.35991  0.19760  -0.06492
     4.63  0.41732  0.19773  -0.06483
     5.79  0.47289  0.19790  -0.06443
     6.94  0.52559  0.19818  -0.06346
     8.10  0.56886  0.19848  -0.06081
    10.72  0.58852  0.20419  -0.04727
    13.34  0.51510  0.24402  -0.04366
    15.96  0.49740  0.26867  -0.04749
    18.57  0.50875  0.29323  -0.05344
    21.19  0.50593  0.32406  -0.06314
    23.81  0.49082  0.34531  -0.07545
    26.43  0.47571  0.36656  -0.08776
    29.05  0.46060  0.38780  -0.10008
    31.67  0.44988  0.41208  -0.10914
    34.29  0.44142  0.43792  -0.11652
    36.91  0.43296  0.46376  -0.12390
    39.52  0.42450  0.48960  -0.13128
    42.14  0.41340  0.51664  -0.13760
    44.76  0.40177  0.54394  -0.14371
    47.38  0.39014  0.57124  -0.14982
    50.00  0.37851  0.59854  -0.15594
    60.00  0.31056  0.69538  -0.17677
    70.00  0.21966  0.77224  -0.19491
    80.00  0.11256  0.81917  -0.20980
    90.00  0.00005  0.82970  -0.22051
   100.00  -0.07870  0.81917  -0.22938
   110.00  -0.15385  0.77224  -0.23104
   120.00  -0.21730  0.69538  -0.22681
   130.00  -0.26499  0.59854  -0.21957
   140.00  -0.29605  0.49400  -0.21358
   150.00  -0.31900  0.39504  -0.21714
   160.00  -0.35500  0.31395  -0.25206
   170.00  -0.17725  0.26090  -0.22506
   180.00  0.00005  0.24240  -0.00005
EOT
