AeroDyn airfoil file.  Compatible with AeroDyn v13.0.
Interpolated thickness: 0.581

  1        Number of airfoil tables in this file
  9990     Reynolds number in millions.  For efficiency, make very large if only one table.
  0        Control setting
  10.7387  Stall angle (deg)
  -3.36814 Zero lift angle of attack (deg)
  3.76998  Cn slope for zero lift (dimensionless)
  0.92821  Cn at stall value for positive angle of attack
  -0.8     Cn at stall value for negative angle of attack
  -2.12    Angle of attack for minimum CD (deg)
  0.162828 Minimum CD value
  -180.00  0.00004  0.21818  -0.00004
  -170.00  0.21726  0.24084  0.22048
  -160.00  0.43503  0.30584  -0.07899
  -150.00  0.39093  0.40519  -0.03478
  -140.00  0.36281  0.52642  -0.00396
  -130.00  0.32477  0.65449  0.02587
  -120.00  0.26633  0.77313  0.05547
  -110.00  0.18859  0.86730  0.08293
  -100.00  0.09653  0.92480  0.10542
   -90.00  0.00004  0.93770  0.12020
   -80.00  -0.09644  0.92480  0.13111
   -70.00  -0.18851  0.86730  0.13310
   -60.00  -0.26624  0.77313  0.12797
   -50.00  -0.32468  0.65449  0.11904
   -40.00  -0.36272  0.52642  0.11176
   -30.00  -0.39084  0.40519  0.11612
   -20.00  -0.43384  0.30573  0.15846
   -10.00  -0.17748  0.21548  0.07003
    -4.17  -0.03965  0.16294  -0.07425
    -3.17  0.02320  0.16288  -0.07535
    -2.12  0.08826  0.16283  -0.07624
    -1.08  0.15386  0.16283  -0.07723
    -0.05  0.21892  0.16288  -0.07778
    -0.03  0.21907  0.16288  -0.07778
     1.16  0.29592  0.16300  -0.07849
     2.32  0.36830  0.16310  -0.07909
     3.48  0.44092  0.16329  -0.07951
     4.64  0.51125  0.16344  -0.07940
     5.80  0.57934  0.16365  -0.07891
     6.96  0.64390  0.16399  -0.07773
     8.12  0.69691  0.16437  -0.07447
    10.74  0.72100  0.17136  -0.05789
    13.36  0.63105  0.22015  -0.05347
    15.97  0.60936  0.25036  -0.05816
    18.59  0.62327  0.28045  -0.06545
    21.21  0.61981  0.31822  -0.07733
    23.83  0.60130  0.34425  -0.09241
    26.44  0.58279  0.37028  -0.10750
    29.06  0.56429  0.39631  -0.12259
    31.68  0.55114  0.42605  -0.13369
    34.30  0.54078  0.45771  -0.14273
    36.91  0.53041  0.48937  -0.15177
    39.53  0.52005  0.52103  -0.16081
    42.15  0.50646  0.55416  -0.16856
    44.77  0.49221  0.58761  -0.17605
    47.38  0.47795  0.62105  -0.18353
    50.00  0.46370  0.65449  -0.19102
    60.00  0.38045  0.77313  -0.21655
    70.00  0.26909  0.86730  -0.23876
    80.00  0.13787  0.92480  -0.25701
    90.00  0.00004  0.93770  -0.27013
   100.00  -0.09644  0.92480  -0.28100
   110.00  -0.18851  0.86730  -0.28304
   120.00  -0.26624  0.77313  -0.27785
   130.00  -0.32468  0.65449  -0.26898
   140.00  -0.36272  0.52642  -0.26164
   150.00  -0.39084  0.40519  -0.26600
   160.00  -0.43494  0.30584  -0.30878
   170.00  -0.21717  0.24084  -0.27570
   180.00  0.00004  0.21818  -0.00004
EOT
