AeroDyn airfoil file.  Compatible with AeroDyn v13.0.
Interpolated thickness: 0.749

  1        Number of airfoil tables in this file
  9990     Reynolds number in millions.  For efficiency, make very large if only one table.
  0        Control setting
  10.6931  Stall angle (deg)
  -3.14086 Zero lift angle of attack (deg)
  2.41756  Cn slope for zero lift (dimensionless)
  0.583715 Cn at stall value for positive angle of attack
  -0.8     Cn at stall value for negative angle of attack
  -2.12    Angle of attack for minimum CD (deg)
  0.237876 Minimum CD value
  -180.00  0.00007  0.27103  -0.00007
  -170.00  0.13019  0.28461  0.13204
  -160.00  0.26064  0.32355  -0.04736
  -150.00  0.23422  0.38306  -0.02087
  -140.00  0.21738  0.45568  -0.00241
  -130.00  0.19459  0.53240  0.01546
  -120.00  0.15958  0.60348  0.03319
  -110.00  0.11302  0.65989  0.04964
  -100.00  0.05786  0.69433  0.06311
   -90.00  0.00007  0.70206  0.07196
   -80.00  -0.05773  0.69433  0.07850
   -70.00  -0.11288  0.65989  0.07969
   -60.00  -0.15945  0.60348  0.07662
   -50.00  -0.19446  0.53240  0.07127
   -40.00  -0.21725  0.45568  0.06691
   -30.00  -0.23409  0.38306  0.06952
   -20.00  -0.25985  0.32348  0.09488
   -10.00  -0.10628  0.26942  0.04191
    -4.17  -0.02371  0.23794  -0.04452
    -3.17  0.01394  0.23791  -0.04518
    -2.12  0.05291  0.23788  -0.04571
    -1.08  0.09221  0.23788  -0.04630
    -0.05  0.13118  0.23791  -0.04663
    -0.02  0.13127  0.23791  -0.04663
     1.15  0.17731  0.23798  -0.04706
     2.31  0.22067  0.23804  -0.04742
     3.46  0.26417  0.23815  -0.04767
     4.61  0.30630  0.23824  -0.04761
     5.77  0.34709  0.23837  -0.04731
     6.92  0.38577  0.23857  -0.04660
     8.07  0.41752  0.23880  -0.04465
    10.69  0.43195  0.24298  -0.03472
    13.31  0.37807  0.27222  -0.03207
    15.93  0.36508  0.29031  -0.03488
    18.55  0.37341  0.30834  -0.03925
    21.17  0.37134  0.33096  -0.04636
    23.80  0.36025  0.34656  -0.05540
    26.42  0.34916  0.36215  -0.06444
    29.04  0.33807  0.37774  -0.07348
    31.66  0.33020  0.39556  -0.08013
    34.28  0.32399  0.41452  -0.08554
    36.90  0.31778  0.43349  -0.09096
    39.52  0.31157  0.45245  -0.09637
    42.14  0.30343  0.47230  -0.10102
    44.76  0.29489  0.49234  -0.10550
    47.38  0.28636  0.51237  -0.10999
    50.00  0.27782  0.53240  -0.11447
    60.00  0.22795  0.60348  -0.12976
    70.00  0.16124  0.65989  -0.14307
    80.00  0.08263  0.69433  -0.15400
    90.00  0.00007  0.70206  -0.16186
   100.00  -0.05773  0.69433  -0.16837
   110.00  -0.11288  0.65989  -0.16959
   120.00  -0.15945  0.60348  -0.16649
   130.00  -0.19446  0.53240  -0.16117
   140.00  -0.21725  0.45568  -0.15678
   150.00  -0.23409  0.38306  -0.15939
   160.00  -0.26051  0.32355  -0.18501
   170.00  -0.13006  0.28461  -0.16520
   180.00  0.00007  0.27103  -0.00007
EOT
