AeroDyn airfoil file.  Compatible with AeroDyn v13.0.
Interpolated thickness: 0.776

  1        Number of airfoil tables in this file
  9990     Reynolds number in millions.  For efficiency, make very large if only one table.
  0        Control setting
  10.6858  Stall angle (deg)
  -3.08243 Zero lift angle of attack (deg)
  2.19787  Cn slope for zero lift (dimensionless)
  0.528149 Cn at stall value for positive angle of attack
  -0.8     Cn at stall value for negative angle of attack
  -2.12    Angle of attack for minimum CD (deg)
  0.249937 Minimum CD value
  -180.00  0.00007  0.27953  -0.00007
  -170.00  0.11620  0.29164  0.11782
  -160.00  0.23262  0.32639  -0.04228
  -150.00  0.20904  0.37950  -0.01864
  -140.00  0.19401  0.44432  -0.00216
  -130.00  0.17367  0.51278  0.01378
  -120.00  0.14243  0.57621  0.02961
  -110.00  0.10087  0.62655  0.04429
  -100.00  0.05165  0.65729  0.05631
   -90.00  0.00007  0.66419  0.06421
   -80.00  -0.05151  0.65729  0.07005
   -70.00  -0.10073  0.62655  0.07111
   -60.00  -0.14229  0.57621  0.06837
   -50.00  -0.17353  0.51278  0.06359
   -40.00  -0.19387  0.44432  0.05970
   -30.00  -0.20890  0.37950  0.06203
   -20.00  -0.23189  0.32633  0.08467
   -10.00  -0.09483  0.27808  0.03739
    -4.17  -0.02115  0.25000  -0.03974
    -3.17  0.01245  0.24997  -0.04033
    -2.12  0.04723  0.24994  -0.04080
    -1.08  0.08230  0.24994  -0.04133
    -0.05  0.11708  0.24997  -0.04163
    -0.01  0.11716  0.24997  -0.04163
     1.15  0.15825  0.25003  -0.04201
     2.30  0.19694  0.25008  -0.04233
     3.46  0.23577  0.25018  -0.04255
     4.61  0.27337  0.25027  -0.04250
     5.76  0.30977  0.25038  -0.04223
     6.91  0.34428  0.25056  -0.04160
     8.06  0.37262  0.25076  -0.03986
    10.69  0.38550  0.25450  -0.03099
    13.31  0.33741  0.28058  -0.02863
    15.93  0.32582  0.29673  -0.03114
    18.55  0.33325  0.31282  -0.03504
    21.17  0.33140  0.33301  -0.04139
    23.79  0.32151  0.34693  -0.04945
    26.41  0.31161  0.36084  -0.05752
    29.03  0.30172  0.37476  -0.06558
    31.65  0.29469  0.39066  -0.07152
    34.27  0.28915  0.40758  -0.07635
    36.90  0.28361  0.42451  -0.08118
    39.52  0.27807  0.44143  -0.08602
    42.14  0.27080  0.45915  -0.09016
    44.76  0.26318  0.47703  -0.09416
    47.38  0.25556  0.49490  -0.09817
    50.00  0.24794  0.51278  -0.10217
    60.00  0.20344  0.57621  -0.11581
    70.00  0.14390  0.62655  -0.12769
    80.00  0.07375  0.65729  -0.13745
    90.00  0.00007  0.66419  -0.14446
   100.00  -0.05151  0.65729  -0.15027
   110.00  -0.10073  0.62655  -0.15136
   120.00  -0.14229  0.57621  -0.14859
   130.00  -0.17353  0.51278  -0.14384
   140.00  -0.19387  0.44432  -0.13992
   150.00  -0.20890  0.37950  -0.14225
   160.00  -0.23248  0.32639  -0.16512
   170.00  -0.11606  0.29164  -0.14744
   180.00  0.00007  0.27953  -0.00007
EOT
