AeroDyn airfoil file.  Compatible with AeroDyn v13.0.
Interpolated thickness: 0.629

  1        Number of airfoil tables in this file
  9990     Reynolds number in millions.  For efficiency, make very large if only one table.
  0        Control setting
  10.7257  Stall angle (deg)
  -3.31863 Zero lift angle of attack (deg)
  3.38611  Cn slope for zero lift (dimensionless)
  0.830002 Cn at stall value for positive angle of attack
  -0.8     Cn at stall value for negative angle of attack
  -2.12    Angle of attack for minimum CD (deg)
  0.18427  Minimum CD value
  -180.00  0.00005  0.23328  -0.00005
  -170.00  0.19239  0.25334  0.19521
  -160.00  0.38521  0.31090  -0.06996
  -150.00  0.34616  0.39886  -0.03081
  -140.00  0.32126  0.50621  -0.00352
  -130.00  0.28758  0.61961  0.02289
  -120.00  0.23583  0.72466  0.04911
  -110.00  0.16700  0.80804  0.07342
  -100.00  0.08548  0.85895  0.09333
   -90.00  0.00005  0.87038  0.10642
   -80.00  -0.08538  0.85895  0.11608
   -70.00  -0.16690  0.80804  0.11784
   -60.00  -0.23573  0.72466  0.11330
   -50.00  -0.28747  0.61961  0.10539
   -40.00  -0.32116  0.50621  0.09895
   -30.00  -0.34605  0.39886  0.10280
   -20.00  -0.38413  0.31080  0.14029
   -10.00  -0.15714  0.23089  0.06199
    -4.17  -0.03510  0.18437  -0.06576
    -3.17  0.02055  0.18432  -0.06673
    -2.12  0.07816  0.18427  -0.06751
    -1.08  0.13625  0.18427  -0.06839
    -0.05  0.19385  0.18432  -0.06888
    -0.02  0.19398  0.18432  -0.06888
     1.16  0.26203  0.18443  -0.06951
     2.32  0.32612  0.18451  -0.07005
     3.47  0.39042  0.18468  -0.07041
     4.63  0.45270  0.18482  -0.07032
     5.79  0.51299  0.18500  -0.06988
     6.95  0.57015  0.18530  -0.06884
     8.11  0.61708  0.18564  -0.06595
    10.73  0.63841  0.19182  -0.05127
    13.34  0.55877  0.23503  -0.04736
    15.96  0.53957  0.26178  -0.05151
    18.58  0.55188  0.28842  -0.05796
    21.20  0.54882  0.32186  -0.06848
    23.82  0.53243  0.34491  -0.08184
    26.44  0.51604  0.36796  -0.09520
    29.05  0.49965  0.39101  -0.10856
    31.67  0.48802  0.41734  -0.11839
    34.29  0.47884  0.44537  -0.12639
    36.91  0.46966  0.47340  -0.13440
    39.53  0.46048  0.50143  -0.14240
    42.15  0.44845  0.53078  -0.14926
    44.76  0.43583  0.56039  -0.15589
    47.38  0.42321  0.59000  -0.16252
    50.00  0.41059  0.61961  -0.16915
    60.00  0.33688  0.72466  -0.19175
    70.00  0.23827  0.80804  -0.21142
    80.00  0.12209  0.85895  -0.22758
    90.00  0.00005  0.87038  -0.23920
   100.00  -0.08538  0.85895  -0.24882
   110.00  -0.16690  0.80804  -0.25062
   120.00  -0.23573  0.72466  -0.24603
   130.00  -0.28747  0.61961  -0.23817
   140.00  -0.32116  0.50621  -0.23168
   150.00  -0.34605  0.39886  -0.23554
   160.00  -0.38511  0.31090  -0.27342
   170.00  -0.19228  0.25334  -0.24413
   180.00  0.00005  0.23328  -0.00005
EOT
