AeroDyn airfoil file.  Compatible with AeroDyn v13.0.
Interpolated thickness: 0.705

  1        Number of airfoil tables in this file
  9990     Reynolds number in millions.  For efficiency, make very large if only one table.
  0        Control setting
  10.7051  Stall angle (deg)
  -3.2183  Zero lift angle of attack (deg)
  2.77418  Cn slope for zero lift (dimensionless)
  0.674148 Cn at stall value for positive angle of attack
  -0.8     Cn at stall value for negative angle of attack
  -2.12    Angle of attack for minimum CD (deg)
  0.21822  Minimum CD value
  -180.00  0.00006  0.25719  -0.00006
  -170.00  0.15300  0.27314  0.15520
  -160.00  0.30632  0.31891  -0.05565
  -150.00  0.27527  0.38885  -0.02452
  -140.00  0.25547  0.47421  -0.00282
  -130.00  0.22869  0.56438  0.01818
  -120.00  0.18754  0.64791  0.03903
  -110.00  0.13281  0.71421  0.05836
  -100.00  0.06799  0.75469  0.07419
   -90.00  0.00006  0.76378  0.08460
   -80.00  -0.06787  0.75469  0.09228
   -70.00  -0.13269  0.71421  0.09368
   -60.00  -0.18742  0.64791  0.09007
   -50.00  -0.22856  0.56438  0.08378
   -40.00  -0.25535  0.47421  0.07866
   -30.00  -0.27514  0.38885  0.08172
   -20.00  -0.30542  0.31883  0.11153
   -10.00  -0.12493  0.25529  0.04927
    -4.17  -0.02789  0.21830  -0.05231
    -3.17  0.01636  0.21826  -0.05308
    -2.12  0.06217  0.21822  -0.05370
    -1.08  0.10836  0.21822  -0.05440
    -0.05  0.15416  0.21826  -0.05479
    -0.02  0.15427  0.21826  -0.05479
     1.16  0.20837  0.21834  -0.05529
     2.31  0.25934  0.21841  -0.05572
     3.47  0.31046  0.21854  -0.05601
     4.62  0.35998  0.21865  -0.05594
     5.78  0.40792  0.21880  -0.05559
     6.93  0.45337  0.21904  -0.05476
     8.09  0.49069  0.21931  -0.05246
    10.71  0.50765  0.22422  -0.04079
    13.32  0.44432  0.25858  -0.03768
    15.94  0.42906  0.27985  -0.04098
    18.56  0.43885  0.30103  -0.04611
    21.18  0.43641  0.32763  -0.05447
    23.80  0.42338  0.34595  -0.06509
    26.42  0.41035  0.36428  -0.07572
    29.04  0.39732  0.38261  -0.08634
    31.66  0.38807  0.40355  -0.09415
    34.28  0.38077  0.42584  -0.10052
    36.90  0.37347  0.44812  -0.10688
    39.52  0.36617  0.47041  -0.11325
    42.14  0.35661  0.49374  -0.11871
    44.76  0.34657  0.51729  -0.12398
    47.38  0.33654  0.54083  -0.12925
    50.00  0.32650  0.56438  -0.13452
    60.00  0.26789  0.64791  -0.15249
    70.00  0.18948  0.71421  -0.16813
    80.00  0.09710  0.75469  -0.18098
    90.00  0.00006  0.76378  -0.19022
   100.00  -0.06787  0.75469  -0.19787
   110.00  -0.13269  0.71421  -0.19930
   120.00  -0.18742  0.64791  -0.19565
   130.00  -0.22856  0.56438  -0.18940
   140.00  -0.25535  0.47421  -0.18424
   150.00  -0.27514  0.38885  -0.18731
   160.00  -0.30620  0.31891  -0.21743
   170.00  -0.15287  0.27314  -0.19414
   180.00  0.00006  0.25719  -0.00006
EOT
