AeroDyn airfoil file.  Compatible with AeroDyn v13.0.
Interpolated thickness: 0.716

  1        Number of airfoil tables in this file
  9990     Reynolds number in millions.  For efficiency, make very large if only one table.
  0        Control setting
  10.7021  Stall angle (deg)
  -3.20063 Zero lift angle of attack (deg)
  2.68518  Cn slope for zero lift (dimensionless)
  0.651554 Cn at stall value for positive angle of attack
  -0.8     Cn at stall value for negative angle of attack
  -2.12    Angle of attack for minimum CD (deg)
  0.223134 Minimum CD value
  -180.00  0.00006  0.26065  -0.00006
  -170.00  0.14729  0.27601  0.14941
  -160.00  0.29490  0.32007  -0.05357
  -150.00  0.26500  0.38741  -0.02360
  -140.00  0.24595  0.46958  -0.00272
  -130.00  0.22016  0.55639  0.01750
  -120.00  0.18055  0.63680  0.03757
  -110.00  0.12786  0.70063  0.05618
  -100.00  0.06546  0.73960  0.07142
   -90.00  0.00006  0.74835  0.08144
   -80.00  -0.06533  0.73960  0.08884
   -70.00  -0.12774  0.70063  0.09018
   -60.00  -0.18043  0.63680  0.08671
   -50.00  -0.22004  0.55639  0.08065
   -40.00  -0.24582  0.46958  0.07572
   -30.00  -0.26488  0.38741  0.07867
   -20.00  -0.29403  0.31999  0.10737
   -10.00  -0.12026  0.25882  0.04743
    -4.17  -0.02684  0.22321  -0.05036
    -3.17  0.01576  0.22317  -0.05111
    -2.12  0.05985  0.22313  -0.05171
    -1.08  0.10432  0.22313  -0.05238
    -0.05  0.14842  0.22317  -0.05275
    -0.02  0.14852  0.22317  -0.05275
     1.15  0.20061  0.22325  -0.05323
     2.31  0.24967  0.22332  -0.05364
     3.46  0.29889  0.22345  -0.05392
     4.62  0.34656  0.22355  -0.05385
     5.77  0.39271  0.22369  -0.05352
     6.93  0.43647  0.22392  -0.05272
     8.08  0.47240  0.22418  -0.05051
    10.70  0.48873  0.22891  -0.03927
    13.32  0.42776  0.26199  -0.03627
    15.94  0.41306  0.28247  -0.03945
    18.56  0.42249  0.30286  -0.04440
    21.18  0.42014  0.32846  -0.05245
    23.80  0.40760  0.34610  -0.06267
    26.42  0.39505  0.36375  -0.07290
    29.04  0.38251  0.38139  -0.08312
    31.66  0.37360  0.40155  -0.09065
    34.28  0.36657  0.42301  -0.09678
    36.90  0.35955  0.44446  -0.10290
    39.52  0.35252  0.46592  -0.10903
    42.14  0.34331  0.48838  -0.11428
    44.76  0.33365  0.51105  -0.11936
    47.38  0.32399  0.53372  -0.12443
    50.00  0.31433  0.55639  -0.12951
    60.00  0.25790  0.63680  -0.14681
    70.00  0.18242  0.70063  -0.16187
    80.00  0.09348  0.73960  -0.17424
    90.00  0.00006  0.74835  -0.18313
   100.00  -0.06533  0.73960  -0.19049
   110.00  -0.12774  0.70063  -0.19187
   120.00  -0.18043  0.63680  -0.18836
   130.00  -0.22004  0.55639  -0.18235
   140.00  -0.24582  0.46958  -0.17738
   150.00  -0.26488  0.38741  -0.18033
   160.00  -0.29477  0.32007  -0.20933
   170.00  -0.14717  0.27601  -0.18690
   180.00  0.00006  0.26065  -0.00006
EOT
