AeroDyn airfoil file.  Compatible with AeroDyn v13.0.
Interpolated thickness: 0.672

  1        Number of airfoil tables in this file
  9990     Reynolds number in millions.  For efficiency, make very large if only one table.
  0        Control setting
  10.714   Stall angle (deg)
  -3.26598 Zero lift angle of attack (deg)
  3.04051  Cn slope for zero lift (dimensionless)
  0.741875 Cn at stall value for positive angle of attack
  -0.8     Cn at stall value for negative angle of attack
  -2.12    Angle of attack for minimum CD (deg)
  0.203479 Minimum CD value
  -180.00  0.00006  0.24681  -0.00006
  -170.00  0.17010  0.26455  0.17257
  -160.00  0.34057  0.31543  -0.06186
  -150.00  0.30605  0.39320  -0.02725
  -140.00  0.28404  0.48811  -0.00312
  -130.00  0.25426  0.58836  0.02023
  -120.00  0.20851  0.68124  0.04340
  -110.00  0.14766  0.75495  0.06490
  -100.00  0.07558  0.79996  0.08250
   -90.00  0.00006  0.81006  0.09407
   -80.00  -0.07547  0.79996  0.10262
   -70.00  -0.14754  0.75495  0.10417
   -60.00  -0.20840  0.68124  0.10016
   -50.00  -0.25414  0.58836  0.09316
   -40.00  -0.28392  0.48811  0.08747
   -30.00  -0.30593  0.39320  0.09088
   -20.00  -0.33960  0.31534  0.12402
   -10.00  -0.13891  0.24469  0.05480
    -4.17  -0.03102  0.20357  -0.05815
    -3.17  0.01818  0.20352  -0.05901
    -2.12  0.06911  0.20348  -0.05970
    -1.08  0.12047  0.20348  -0.06048
    -0.05  0.17139  0.20352  -0.06091
    -0.02  0.17151  0.20352  -0.06091
     1.16  0.23167  0.20362  -0.06146
     2.31  0.28834  0.20369  -0.06194
     3.47  0.34518  0.20384  -0.06226
     4.63  0.40024  0.20396  -0.06218
     5.78  0.45354  0.20412  -0.06179
     6.94  0.50408  0.20439  -0.06087
     8.09  0.54557  0.20469  -0.05832
    10.71  0.56443  0.21015  -0.04534
    13.33  0.49402  0.24835  -0.04188
    15.95  0.47704  0.27200  -0.04555
    18.57  0.48793  0.29556  -0.05126
    21.19  0.48522  0.32512  -0.06056
    23.81  0.47073  0.34550  -0.07237
    26.43  0.45624  0.36588  -0.08418
    29.05  0.44175  0.38626  -0.09599
    31.67  0.43147  0.40954  -0.10468
    34.29  0.42335  0.43432  -0.11175
    36.90  0.41524  0.45910  -0.11883
    39.52  0.40712  0.48388  -0.12591
    42.14  0.39649  0.50982  -0.13198
    44.76  0.38533  0.53600  -0.13784
    47.38  0.37417  0.56218  -0.14370
    50.00  0.36301  0.58836  -0.14956
    60.00  0.29785  0.68124  -0.16954
    70.00  0.21067  0.75495  -0.18693
    80.00  0.10795  0.79996  -0.20122
    90.00  0.00006  0.81006  -0.21149
   100.00  -0.07547  0.79996  -0.21999
   110.00  -0.14754  0.75495  -0.22159
   120.00  -0.20840  0.68124  -0.21753
   130.00  -0.25414  0.58836  -0.21058
   140.00  -0.28392  0.48811  -0.20484
   150.00  -0.30593  0.39320  -0.20825
   160.00  -0.34046  0.31543  -0.24174
   170.00  -0.16999  0.26455  -0.21585
   180.00  0.00006  0.24681  -0.00006
EOT
