AeroDyn airfoil file.  Compatible with AeroDyn v13.0.
Interpolated thickness: 0.57

  1        Number of airfoil tables in this file
  9990     Reynolds number in millions.  For efficiency, make very large if only one table.
  0        Control setting
  10.7417  Stall angle (deg)
  -3.37841 Zero lift angle of attack (deg)
  3.85767  Cn slope for zero lift (dimensionless)
  0.950692 Cn at stall value for positive angle of attack
  -0.8     Cn at stall value for negative angle of attack
  -2.12    Angle of attack for minimum CD (deg)
  0.157914 Minimum CD value
  -180.00  0.00004  0.21472  -0.00004
  -170.00  0.22296  0.23797  0.22627
  -160.00  0.44645  0.30468  -0.08106
  -150.00  0.40119  0.40664  -0.03569
  -140.00  0.37233  0.53105  -0.00406
  -130.00  0.33329  0.66249  0.02655
  -120.00  0.27332  0.78424  0.05693
  -110.00  0.19354  0.88088  0.08511
  -100.00  0.09906  0.93989  0.10819
   -90.00  0.00004  0.95313  0.12336
   -80.00  -0.09897  0.93989  0.13456
   -70.00  -0.19346  0.88088  0.13659
   -60.00  -0.27323  0.78424  0.13133
   -50.00  -0.33321  0.66249  0.12217
   -40.00  -0.37225  0.53105  0.11470
   -30.00  -0.40110  0.40664  0.11917
   -20.00  -0.44523  0.30457  0.16262
   -10.00  -0.18214  0.21195  0.07187
    -4.17  -0.04069  0.15803  -0.07620
    -3.17  0.02381  0.15797  -0.07733
    -2.12  0.09057  0.15791  -0.07824
    -1.08  0.15790  0.15791  -0.07925
    -0.05  0.22466  0.15797  -0.07982
    -0.03  0.22482  0.15797  -0.07982
     1.16  0.30369  0.15809  -0.08055
     2.32  0.37797  0.15819  -0.08117
     3.48  0.45249  0.15839  -0.08159
     4.64  0.52467  0.15855  -0.08149
     5.80  0.59455  0.15876  -0.08098
     6.96  0.66080  0.15911  -0.07977
     8.12  0.71520  0.15950  -0.07642
    10.74  0.73992  0.16667  -0.05940
    13.36  0.64761  0.21674  -0.05487
    15.98  0.62536  0.24775  -0.05968
    18.59  0.63963  0.27863  -0.06717
    21.21  0.63608  0.31739  -0.07936
    23.83  0.61709  0.34410  -0.09484
    26.45  0.59809  0.37082  -0.11032
    29.06  0.57910  0.39753  -0.12580
    31.68  0.56561  0.42805  -0.13720
    34.30  0.55497  0.46054  -0.14647
    36.91  0.54434  0.49303  -0.15575
    39.53  0.53370  0.52552  -0.16503
    42.15  0.51975  0.55952  -0.17299
    44.77  0.50513  0.59384  -0.18067
    47.38  0.49050  0.62817  -0.18835
    50.00  0.47587  0.66249  -0.19603
    60.00  0.39044  0.78424  -0.22223
    70.00  0.27615  0.88088  -0.24503
    80.00  0.14149  0.93989  -0.26376
    90.00  0.00004  0.95313  -0.27722
   100.00  -0.09897  0.93989  -0.28837
   110.00  -0.19346  0.88088  -0.29046
   120.00  -0.27323  0.78424  -0.28514
   130.00  -0.33321  0.66249  -0.27604
   140.00  -0.37225  0.53105  -0.26851
   150.00  -0.40110  0.40664  -0.27298
   160.00  -0.44636  0.30468  -0.31689
   170.00  -0.22288  0.23797  -0.28294
   180.00  0.00004  0.21472  -0.00004
EOT
