AeroDyn airfoil file.  Compatible with AeroDyn v13.0.
Interpolated thickness: 0.785

  1        Number of airfoil tables in this file
  9990     Reynolds number in millions.  For efficiency, make very large if only one table.
  0        Control setting
  10.6833  Stall angle (deg)
  -3.06053 Zero lift angle of attack (deg)
  2.12449  Cn slope for zero lift (dimensionless)
  0.509615 Cn at stall value for positive angle of attack
  -0.8     Cn at stall value for negative angle of attack
  -2.12    Angle of attack for minimum CD (deg)
  0.253957 Minimum CD value
  -180.00  0.00007  0.28236  -0.00007
  -170.00  0.11153  0.29399  0.11309
  -160.00  0.22328  0.32734  -0.04058
  -150.00  0.20064  0.37832  -0.01789
  -140.00  0.18622  0.44053  -0.00208
  -130.00  0.16670  0.50624  0.01322
  -120.00  0.13671  0.56712  0.02842
  -110.00  0.09682  0.61544  0.04250
  -100.00  0.04958  0.64495  0.05405
   -90.00  0.00007  0.65157  0.06163
   -80.00  -0.04943  0.64495  0.06723
   -70.00  -0.09668  0.61544  0.06825
   -60.00  -0.13657  0.56712  0.06562
   -50.00  -0.16655  0.50624  0.06103
   -40.00  -0.18607  0.44053  0.05730
   -30.00  -0.20050  0.37832  0.05953
   -20.00  -0.22257  0.32728  0.08126
   -10.00  -0.09102  0.28097  0.03588
    -4.17  -0.02030  0.25401  -0.03815
    -3.17  0.01195  0.25399  -0.03872
    -2.12  0.04533  0.25396  -0.03917
    -1.08  0.07900  0.25396  -0.03968
    -0.05  0.11238  0.25399  -0.03996
    -0.01  0.11246  0.25399  -0.03996
     1.15  0.15189  0.25405  -0.04032
     2.30  0.18904  0.25410  -0.04063
     3.46  0.22630  0.25419  -0.04085
     4.61  0.26239  0.25427  -0.04079
     5.76  0.29732  0.25438  -0.04054
     6.91  0.33045  0.25456  -0.03993
     8.06  0.35765  0.25475  -0.03826
    10.68  0.37001  0.25833  -0.02975
    13.30  0.32386  0.28337  -0.02749
    15.93  0.31273  0.29887  -0.02989
    18.55  0.31987  0.31431  -0.03363
    21.17  0.31809  0.33369  -0.03973
    23.79  0.30859  0.34705  -0.04747
    26.41  0.29910  0.36041  -0.05521
    29.03  0.28960  0.37377  -0.06295
    31.65  0.28286  0.38903  -0.06865
    34.27  0.27754  0.40527  -0.07329
    36.89  0.27222  0.42151  -0.07793
    39.52  0.26690  0.43776  -0.08257
    42.14  0.25993  0.45476  -0.08654
    44.76  0.25261  0.47192  -0.09038
    47.38  0.24530  0.48908  -0.09423
    50.00  0.23799  0.50624  -0.09807
    60.00  0.19527  0.56712  -0.11116
    70.00  0.13812  0.61544  -0.12257
    80.00  0.07080  0.64495  -0.13193
    90.00  0.00007  0.65157  -0.13866
   100.00  -0.04943  0.64495  -0.14423
   110.00  -0.09668  0.61544  -0.14528
   120.00  -0.13657  0.56712  -0.14262
   130.00  -0.16655  0.50624  -0.13807
   140.00  -0.18607  0.44053  -0.13431
   150.00  -0.20050  0.37832  -0.13654
   160.00  -0.22313  0.32734  -0.15849
   170.00  -0.11139  0.29399  -0.14152
   180.00  0.00007  0.28236  -0.00007
EOT
