AeroDyn airfoil file.  Compatible with AeroDyn v13.0.
Interpolated thickness: 0.731

  1        Number of airfoil tables in this file
  9990     Reynolds number in millions.  For efficiency, make very large if only one table.
  0        Control setting
  10.698   Stall angle (deg)
  -3.17482 Zero lift angle of attack (deg)
  2.56365  Cn slope for zero lift (dimensionless)
  0.620729 Cn at stall value for positive angle of attack
  -0.8     Cn at stall value for negative angle of attack
  -2.12    Angle of attack for minimum CD (deg)
  0.229835 Minimum CD value
  -180.00  0.00006  0.26537  -0.00006
  -170.00  0.13952  0.27992  0.14151
  -160.00  0.27933  0.32165  -0.05075
  -150.00  0.25101  0.38543  -0.02236
  -140.00  0.23296  0.46326  -0.00258
  -130.00  0.20854  0.54549  0.01657
  -120.00  0.17102  0.62165  0.03558
  -110.00  0.12111  0.68211  0.05320
  -100.00  0.06201  0.71903  0.06765
   -90.00  0.00006  0.72731  0.07713
   -80.00  -0.06188  0.71903  0.08414
   -70.00  -0.12099  0.68211  0.08541
   -60.00  -0.17089  0.62165  0.08212
   -50.00  -0.20841  0.54549  0.07639
   -40.00  -0.23283  0.46326  0.07172
   -30.00  -0.25088  0.38543  0.07451
   -20.00  -0.27849  0.32158  0.10170
   -10.00  -0.11391  0.26364  0.04492
    -4.17  -0.02542  0.22991  -0.04771
    -3.17  0.01493  0.22987  -0.04841
    -2.12  0.05670  0.22983  -0.04898
    -1.08  0.09882  0.22983  -0.04962
    -0.05  0.14058  0.22987  -0.04997
    -0.02  0.14068  0.22987  -0.04997
     1.15  0.19002  0.22995  -0.05043
     2.31  0.23649  0.23001  -0.05082
     3.46  0.28311  0.23013  -0.05108
     4.62  0.32826  0.23023  -0.05101
     5.77  0.37198  0.23036  -0.05070
     6.92  0.41342  0.23058  -0.04994
     8.08  0.44745  0.23083  -0.04785
    10.70  0.46292  0.23531  -0.03720
    13.32  0.40517  0.26664  -0.03436
    15.94  0.39125  0.28603  -0.03737
    18.56  0.40018  0.30535  -0.04206
    21.18  0.39796  0.32960  -0.04968
    23.80  0.38608  0.34631  -0.05937
    26.42  0.37419  0.36302  -0.06905
    29.04  0.36231  0.37973  -0.07874
    31.66  0.35387  0.39883  -0.08586
    34.28  0.34722  0.41915  -0.09167
    36.90  0.34056  0.43948  -0.09747
    39.52  0.33391  0.45980  -0.10328
    42.14  0.32518  0.48107  -0.10825
    44.76  0.31603  0.50254  -0.11306
    47.38  0.30688  0.52401  -0.11787
    50.00  0.29773  0.54549  -0.12267
    60.00  0.24429  0.62165  -0.13906
    70.00  0.17279  0.68211  -0.15332
    80.00  0.08855  0.71903  -0.16504
    90.00  0.00006  0.72731  -0.17346
   100.00  -0.06188  0.71903  -0.18044
   110.00  -0.12099  0.68211  -0.18175
   120.00  -0.17089  0.62165  -0.17842
   130.00  -0.20841  0.54549  -0.17272
   140.00  -0.23283  0.46326  -0.16801
   150.00  -0.25088  0.38543  -0.17081
   160.00  -0.27920  0.32165  -0.19828
   170.00  -0.13939  0.27992  -0.17704
   180.00  0.00006  0.26537  -0.00006
EOT
