AeroDyn airfoil file.  Compatible with AeroDyn v13.0.
Interpolated thickness: 0.543

  1        Number of airfoil tables in this file
  9990     Reynolds number in millions.  For efficiency, make very large if only one table.
  0        Control setting
  10.749   Stall angle (deg)
  -3.4022  Zero lift angle of attack (deg)
  4.07245  Cn slope for zero lift (dimensionless)
  1.00584  Cn at stall value for positive angle of attack
  -0.8     Cn at stall value for negative angle of attack
  -2.12    Angle of attack for minimum CD (deg)
  0.145853 Minimum CD value
  -180.00  0.00004  0.20623  -0.00004
  -170.00  0.23696  0.23094  0.24049
  -160.00  0.47448  0.30183  -0.08615
  -150.00  0.42637  0.41019  -0.03792
  -140.00  0.39571  0.54242  -0.00431
  -130.00  0.35421  0.68211  0.02822
  -120.00  0.29048  0.81151  0.06051
  -110.00  0.20569  0.91421  0.09046
  -100.00  0.10527  0.97693  0.11499
   -90.00  0.00004  0.99100  0.13111
   -80.00  -0.10519  0.97693  0.14301
   -70.00  -0.20561  0.91421  0.14518
   -60.00  -0.29040  0.81151  0.13959
   -50.00  -0.35414  0.68211  0.12984
   -40.00  -0.39563  0.54242  0.12191
   -30.00  -0.42629  0.41019  0.12666
   -20.00  -0.47320  0.30171  0.17284
   -10.00  -0.19358  0.20328  0.07639
    -4.17  -0.04325  0.14597  -0.08098
    -3.17  0.02530  0.14591  -0.08218
    -2.12  0.09625  0.14585  -0.08314
    -1.08  0.16781  0.14585  -0.08422
    -0.05  0.23876  0.14591  -0.08483
    -0.03  0.23893  0.14591  -0.08483
     1.16  0.32275  0.14604  -0.08560
     2.32  0.40170  0.14615  -0.08626
     3.49  0.48090  0.14636  -0.08671
     4.65  0.55761  0.14653  -0.08660
     5.81  0.63188  0.14675  -0.08606
     6.97  0.70229  0.14713  -0.08477
     8.13  0.76010  0.14754  -0.08122
    10.75  0.78638  0.15515  -0.06313
    13.37  0.68827  0.20838  -0.05831
    15.98  0.66462  0.24133  -0.06343
    18.60  0.67979  0.27414  -0.07138
    21.22  0.67602  0.31534  -0.08433
    23.83  0.65583  0.34373  -0.10079
    26.45  0.63564  0.37212  -0.11724
    29.07  0.61545  0.40051  -0.13370
    31.68  0.60112  0.43295  -0.14580
    34.30  0.58981  0.46748  -0.15567
    36.92  0.57851  0.50201  -0.16553
    39.53  0.56720  0.53654  -0.17539
    42.15  0.55238  0.57268  -0.18384
    44.77  0.53684  0.60916  -0.19201
    47.38  0.52129  0.64563  -0.20017
    50.00  0.50575  0.68211  -0.20834
    60.00  0.41495  0.81151  -0.23618
    70.00  0.29348  0.91421  -0.26041
    80.00  0.15037  0.97693  -0.28031
    90.00  0.00004  0.99100  -0.29462
   100.00  -0.10519  0.97693  -0.30647
   110.00  -0.20561  0.91421  -0.30870
   120.00  -0.29040  0.81151  -0.30304
   130.00  -0.35414  0.68211  -0.29336
   140.00  -0.39563  0.54242  -0.28536
   150.00  -0.42629  0.41019  -0.29011
   160.00  -0.47440  0.30183  -0.33678
   170.00  -0.23688  0.23094  -0.30070
   180.00  0.00004  0.20623  -0.00004
EOT
