AeroDyn airfoil file.  Compatible with AeroDyn v13.0.
Interpolated thickness: 0.184

  1        Number of airfoil tables in this file
  9990     Reynolds number in millions.  For efficiency, make very large if only one table.
  0        Control setting
  13.9008  Stall angle (deg)
  -5.13352 Zero lift angle of attack (deg)
  6.18558  Cn slope for zero lift (dimensionless)
  2.05492  Cn at stall value for positive angle of attack
  -0.8     Cn at stall value for negative angle of attack
  -4.09    Angle of attack for minimum CD (deg)
  0.0074184 Minimum CD value
  -180.00  0.00000  0.17498  0.00000
  -170.00  0.39960  0.21504  0.40000
  -160.00  0.80020  0.33006  -0.13872
  -150.00  0.71060  0.50554  -0.06212
  -140.00  0.65960  0.71904  -0.00694
  -130.00  0.58980  0.94342  0.04644
  -120.00  0.48380  1.14950  0.09862
  -110.00  0.34200  1.31022  0.14570
  -100.00  0.17500  1.40372  0.18290
   -90.00  0.00000  1.41600  0.20530
   -80.00  -0.17500  1.40372  0.22614
   -70.00  -0.34200  1.31022  0.23094
   -60.00  -0.48380  1.14950  0.22260
   -50.00  -0.58980  0.94342  0.20688
   -40.00  -0.65960  0.71904  0.19320
   -30.00  -0.71060  0.50554  0.19894
   -20.00  -0.79900  0.32978  0.27318
   -10.00  -0.27560  0.10496  0.06678
    -6.04  -0.08884  0.01601  -0.12677
    -5.04  0.01894  0.01042  -0.14415
    -4.09  0.11302  0.00742  -0.15391
    -3.02  0.22937  0.00748  -0.15529
    -2.02  0.33669  0.00754  -0.15607
    -1.03  0.44335  0.00762  -0.15673
    -0.01  0.55225  0.00780  -0.15772
     0.81  0.64263  0.00801  -0.15759
     1.63  0.73041  0.00828  -0.15795
     2.44  0.81705  0.00862  -0.15869
     3.25  0.90192  0.00895  -0.15804
     4.06  0.98518  0.00932  -0.15721
     4.88  1.06320  0.00970  -0.15556
     7.13  1.21726  0.01437  -0.14304
     9.39  1.31699  0.02876  -0.13039
    11.64  1.42118  0.04628  -0.12228
    13.90  1.45400  0.08020  -0.11521
    16.16  1.30050  0.20293  -0.12896
    18.41  1.22517  0.27544  -0.13864
    20.67  1.13819  0.34188  -0.16975
    22.93  1.10848  0.38150  -0.19201
    25.18  1.07876  0.42112  -0.21428
    27.44  1.04905  0.46074  -0.23654
    29.69  1.02070  0.50130  -0.25780
    31.95  1.00103  0.54740  -0.27350
    34.21  0.98460  0.59554  -0.28717
    36.46  0.96817  0.64368  -0.30084
    38.72  0.95174  0.69182  -0.31452
    40.98  0.93262  0.74105  -0.32718
    43.23  0.90991  0.79165  -0.33855
    45.49  0.88721  0.84224  -0.34991
    47.74  0.86450  0.89283  -0.36128
    50.00  0.84180  0.94342  -0.37264
    60.00  0.69080  1.14950  -0.41670
    70.00  0.48880  1.31022  -0.45404
    80.00  0.25000  1.40372  -0.48330
    90.00  0.00000  1.41600  -0.50270
   100.00  -0.17500  1.40372  -0.52352
   110.00  -0.34200  1.31022  -0.52834
   120.00  -0.48380  1.14950  -0.51998
   130.00  -0.58980  0.94342  -0.50428
   140.00  -0.65960  0.71904  -0.49058
   150.00  -0.71060  0.50554  -0.49632
   160.00  -0.80020  0.33006  -0.57096
   170.00  -0.39960  0.21504  -0.50000
   180.00  0.00000  0.17498  0.00000
EOT
