AeroDyn airfoil file.  Compatible with AeroDyn v13.0.
Interpolated thickness: 0.237

  1        Number of airfoil tables in this file
  9990     Reynolds number in millions.  For efficiency, make very large if only one table.
  0        Control setting
  10.1388  Stall angle (deg)
  -3.61319 Zero lift angle of attack (deg)
  6.4995   Cn slope for zero lift (dimensionless)
  1.56     Cn at stall value for positive angle of attack
  -0.8     Cn at stall value for negative angle of attack
  -2.02    Angle of attack for minimum CD (deg)
  0.0103414 Minimum CD value
  -180.00  0.00000  0.11433  0.00000
  -170.00  0.39430  0.15538  0.40000
  -160.00  0.78960  0.27312  -0.14296
  -150.00  0.70909  0.45307  -0.06295
  -140.00  0.65809  0.67263  -0.00709
  -130.00  0.58904  0.90450  0.04697
  -120.00  0.48304  1.11921  0.10059
  -110.00  0.34200  1.28947  0.15024
  -100.00  0.17500  1.39320  0.19085
   -90.00  0.00000  1.41600  0.21741
   -80.00  -0.17500  1.39320  0.23727
   -70.00  -0.34200  1.28947  0.24093
   -60.00  -0.48304  1.11921  0.23169
   -50.00  -0.58904  0.90450  0.21551
   -40.00  -0.65809  0.67263  0.20229
   -30.00  -0.70909  0.45307  0.21007
   -20.00  -0.78764  0.27292  0.28673
   -10.00  -0.31951  0.10594  0.12387
    -6.04  -0.14879  0.03992  -0.05474
    -5.04  -0.10244  0.02414  -0.09815
    -4.09  -0.05346  0.01052  -0.13579
    -3.02  0.06799  0.01042  -0.13782
    -2.02  0.18029  0.01034  -0.13932
    -1.03  0.29323  0.01035  -0.14094
    -0.05  0.40558  0.01045  -0.14190
     1.34  0.56301  0.01069  -0.14328
     2.68  0.71299  0.01096  -0.14449
     4.02  0.86254  0.01135  -0.14506
     5.36  1.00395  0.01168  -0.14417
     6.70  1.13990  0.01233  -0.14218
     8.04  1.25324  0.01311  -0.13610
    10.14  1.30138  0.02148  -0.11205
    12.24  1.17948  0.07312  -0.09649
    14.33  1.14100  0.13172  -0.10076
    16.43  1.11834  0.18137  -0.10737
    18.53  1.13955  0.22273  -0.11919
    20.63  1.13593  0.28252  -0.13492
    22.73  1.10585  0.32182  -0.15730
    24.82  1.07884  0.35970  -0.17921
    26.92  1.05183  0.39757  -0.20113
    29.02  1.02481  0.43544  -0.22304
    31.12  1.00430  0.47780  -0.24013
    33.22  0.98901  0.52374  -0.25339
    35.31  0.97389  0.56980  -0.26654
    37.41  0.95878  0.61585  -0.27968
    39.51  0.94366  0.66191  -0.29283
    41.61  0.92420  0.70995  -0.30425
    43.71  0.90341  0.75859  -0.31514
    45.80  0.88262  0.80723  -0.32603
    47.90  0.86183  0.85586  -0.33692
    50.00  0.84104  0.90450  -0.34781
    60.00  0.69004  1.11921  -0.39399
    70.00  0.48804  1.28947  -0.43413
    80.00  0.25000  1.39320  -0.46702
    90.00  0.00000  1.41600  -0.49059
   100.00  -0.17500  1.39320  -0.51035
   110.00  -0.34200  1.28947  -0.51411
   120.00  -0.48304  1.11921  -0.50476
   130.00  -0.58904  0.90450  -0.48868
   140.00  -0.65809  0.67263  -0.47536
   150.00  -0.70909  0.45307  -0.48315
   160.00  -0.78960  0.27312  -0.56059
   170.00  -0.39430  0.15538  -0.50000
   180.00  0.00000  0.11433  0.00000
EOT
