AeroDyn airfoil file.  Compatible with AeroDyn v13.0.
Interpolated thickness: 0.695

  1        Number of airfoil tables in this file
  9990     Reynolds number in millions.  For efficiency, make very large if only one table.
  0        Control setting
  10.7078  Stall angle (deg)
  -3.23354 Zero lift angle of attack (deg)
  2.85499  Cn slope for zero lift (dimensionless)
  0.69468  Cn at stall value for positive angle of attack
  -0.8     Cn at stall value for negative angle of attack
  -2.12    Angle of attack for minimum CD (deg)
  0.213753 Minimum CD value
  -180.00  0.00006  0.25405  -0.00006
  -170.00  0.15818  0.27054  0.16047
  -160.00  0.31670  0.31785  -0.05753
  -150.00  0.28459  0.39017  -0.02534
  -140.00  0.26413  0.47842  -0.00291
  -130.00  0.23643  0.57165  0.01880
  -120.00  0.19390  0.65801  0.04035
  -110.00  0.13731  0.72655  0.06034
  -100.00  0.07029  0.76841  0.07671
   -90.00  0.00006  0.77780  0.08747
   -80.00  -0.07017  0.76841  0.09541
   -70.00  -0.13719  0.72655  0.09686
   -60.00  -0.19378  0.65801  0.09313
   -50.00  -0.23632  0.57165  0.08662
   -40.00  -0.26401  0.47842  0.08133
   -30.00  -0.28447  0.39017  0.08450
   -20.00  -0.31578  0.31777  0.11532
   -10.00  -0.12916  0.25208  0.05095
    -4.17  -0.02883  0.21383  -0.05408
    -3.17  0.01692  0.21379  -0.05488
    -2.12  0.06427  0.21375  -0.05552
    -1.08  0.11203  0.21375  -0.05624
    -0.05  0.15938  0.21379  -0.05665
    -0.02  0.15949  0.21379  -0.05665
     1.16  0.21543  0.21388  -0.05716
     2.31  0.26812  0.21395  -0.05760
     3.47  0.32098  0.21409  -0.05790
     4.62  0.37218  0.21420  -0.05783
     5.78  0.42174  0.21435  -0.05747
     6.93  0.46874  0.21460  -0.05661
     8.09  0.50732  0.21488  -0.05424
    10.71  0.52486  0.21996  -0.04217
    13.33  0.45938  0.25548  -0.03895
    15.95  0.44360  0.27747  -0.04236
    18.57  0.45372  0.29937  -0.04767
    21.19  0.45120  0.32687  -0.05632
    23.81  0.43773  0.34582  -0.06730
    26.42  0.42426  0.36477  -0.07828
    29.04  0.41078  0.38371  -0.08926
    31.66  0.40122  0.40536  -0.09734
    34.28  0.39367  0.42841  -0.10392
    36.90  0.38613  0.45145  -0.11050
    39.52  0.37858  0.47449  -0.11709
    42.14  0.36869  0.49862  -0.12273
    44.76  0.35832  0.52296  -0.12818
    47.38  0.34794  0.54730  -0.13363
    50.00  0.33757  0.57165  -0.13908
    60.00  0.27697  0.65801  -0.15766
    70.00  0.19590  0.72655  -0.17383
    80.00  0.10039  0.76841  -0.18711
    90.00  0.00006  0.77780  -0.19666
   100.00  -0.07017  0.76841  -0.20457
   110.00  -0.13719  0.72655  -0.20606
   120.00  -0.19378  0.65801  -0.20228
   130.00  -0.23632  0.57165  -0.19582
   140.00  -0.26401  0.47842  -0.19048
   150.00  -0.28447  0.39017  -0.19365
   160.00  -0.31658  0.31785  -0.22480
   170.00  -0.15806  0.27054  -0.20072
   180.00  0.00006  0.25405  -0.00006
EOT
