AeroDyn airfoil file.  Compatible with AeroDyn v13.0.
Interpolated thickness: 0.361

  1        Number of airfoil tables in this file
  9990     Reynolds number in millions.  For efficiency, make very large if only one table.
  0        Control setting
  10.7984  Stall angle (deg)
  -3.5272  Zero lift angle of attack (deg)
  5.50388  Cn slope for zero lift (dimensionless)
  1.37613  Cn at stall value for positive angle of attack
  -0.8     Cn at stall value for negative angle of attack
  -2.12    Angle of attack for minimum CD (deg)
  0.064552 Minimum CD value
  -180.00  0.00002  0.14897  -0.00002
  -170.00  0.33129  0.18352  0.33630
  -160.00  0.66340  0.28265  -0.12042
  -150.00  0.59614  0.43416  -0.05299
  -140.00  0.55326  0.61905  -0.00599
  -130.00  0.49524  0.81437  0.03950
  -120.00  0.40612  0.99531  0.08465
  -110.00  0.28757  1.13891  0.12652
  -100.00  0.14715  1.22661  0.16083
   -90.00  0.00002  1.24628  0.18336
   -80.00  -0.14712  1.22661  0.20001
   -70.00  -0.28753  1.13891  0.20303
   -60.00  -0.40609  0.99531  0.19522
   -50.00  -0.49521  0.81437  0.18159
   -40.00  -0.55322  0.61905  0.17050
   -30.00  -0.59610  0.43416  0.17714
   -20.00  -0.66169  0.28248  0.24171
   -10.00  -0.27072  0.14485  0.10685
    -4.17  -0.06052  0.06472  -0.11319
    -3.17  0.03533  0.06464  -0.11487
    -2.12  0.13454  0.06455  -0.11621
    -1.08  0.23460  0.06455  -0.11773
    -0.05  0.33381  0.06464  -0.11857
    -0.04  0.33404  0.06464  -0.11857
     1.17  0.45124  0.06482  -0.11965
     2.34  0.56163  0.06497  -0.12057
     3.51  0.67238  0.06525  -0.12120
     4.68  0.77964  0.06549  -0.12104
     5.85  0.88348  0.06580  -0.12029
     7.02  0.98193  0.06633  -0.11849
     8.18  1.06277  0.06691  -0.11352
    10.80  1.09951  0.07756  -0.08823
    13.41  0.96233  0.15198  -0.08149
    16.03  0.92926  0.19805  -0.08864
    18.64  0.95047  0.24394  -0.09976
    21.25  0.94520  0.30154  -0.11788
    23.87  0.91697  0.34124  -0.14088
    26.48  0.88874  0.38093  -0.16389
    29.09  0.86052  0.42063  -0.18690
    31.71  0.84047  0.46599  -0.20383
    34.32  0.82467  0.51427  -0.21762
    36.93  0.80886  0.56255  -0.23141
    39.55  0.79305  0.61083  -0.24519
    42.16  0.77233  0.66136  -0.25702
    44.77  0.75059  0.71236  -0.26843
    47.39  0.72886  0.76337  -0.27985
    50.00  0.70712  0.81437  -0.29127
    60.00  0.58016  0.99531  -0.33019
    70.00  0.41032  1.13891  -0.36408
    80.00  0.21021  1.22661  -0.39191
    90.00  0.00002  1.24628  -0.41192
   100.00  -0.14712  1.22661  -0.42848
   110.00  -0.28753  1.13891  -0.43159
   120.00  -0.40609  0.99531  -0.42369
   130.00  -0.49521  0.81437  -0.41015
   140.00  -0.55322  0.61905  -0.39897
   150.00  -0.59610  0.43416  -0.40561
   160.00  -0.66337  0.28265  -0.47086
   170.00  -0.33126  0.18352  -0.42041
   180.00  0.00002  0.14897  -0.00002
EOT
