AeroDyn airfoil file.  Compatible with AeroDyn v13.0.
Interpolated thickness: 0.996

  1        Number of airfoil tables in this file
  9990     Reynolds number in millions.  For efficiency, make very large if only one table.
  0        Control setting
  10.6261  Stall angle (deg)
  -0.335792 Zero lift angle of attack (deg)
  0.382434 Cn slope for zero lift (dimensionless)
  0.0731676 Cn at stall value for positive angle of attack
  -0.8     Cn at stall value for negative angle of attack
  -2.12    Angle of attack for minimum CD (deg)
  0.348213 Minimum CD value
  -180.00  0.00010  0.34874  -0.00010
  -170.00  0.00217  0.34896  0.00201
  -160.00  0.00425  0.34958  -0.00085
  -150.00  0.00383  0.35053  -0.00043
  -140.00  0.00356  0.35168  -0.00014
  -130.00  0.00320  0.35291  0.00015
  -120.00  0.00264  0.35404  0.00043
  -110.00  0.00190  0.35494  0.00069
  -100.00  0.00102  0.35549  0.00091
   -90.00  0.00010  0.35561  0.00105
   -80.00  -0.00082  0.35549  0.00115
   -70.00  -0.00170  0.35494  0.00117
   -60.00  -0.00244  0.35404  0.00112
   -50.00  -0.00300  0.35291  0.00104
   -40.00  -0.00336  0.35168  0.00097
   -30.00  -0.00363  0.35053  0.00101
   -20.00  -0.00404  0.34958  0.00141
   -10.00  -0.00160  0.34872  0.00057
    -4.17  -0.00028  0.34821  -0.00081
    -3.17  0.00032  0.34821  -0.00082
    -2.12  0.00094  0.34821  -0.00083
    -1.08  0.00157  0.34821  -0.00084
    -0.05  0.00219  0.34821  -0.00084
    -0.00  0.00219  0.34821  -0.00084
     1.14  0.00292  0.34821  -0.00085
     2.29  0.00362  0.34822  -0.00085
     3.43  0.00431  0.34822  -0.00086
     4.57  0.00498  0.34822  -0.00086
     5.72  0.00563  0.34822  -0.00085
     6.86  0.00625  0.34822  -0.00084
     8.00  0.00675  0.34823  -0.00081
    10.63  0.00698  0.34829  -0.00065
    13.25  0.00612  0.34876  -0.00061
    15.88  0.00592  0.34905  -0.00065
    18.50  0.00605  0.34934  -0.00072
    21.13  0.00602  0.34970  -0.00084
    23.75  0.00584  0.34995  -0.00098
    26.38  0.00566  0.35019  -0.00113
    29.00  0.00549  0.35044  -0.00127
    31.63  0.00536  0.35073  -0.00138
    34.25  0.00526  0.35103  -0.00146
    36.88  0.00516  0.35133  -0.00155
    39.50  0.00506  0.35163  -0.00163
    42.13  0.00493  0.35195  -0.00171
    44.75  0.00480  0.35227  -0.00178
    47.38  0.00466  0.35259  -0.00185
    50.00  0.00453  0.35291  -0.00192
    60.00  0.00373  0.35404  -0.00217
    70.00  0.00267  0.35494  -0.00238
    80.00  0.00142  0.35549  -0.00255
    90.00  0.00010  0.35561  -0.00268
   100.00  -0.00082  0.35549  -0.00278
   110.00  -0.00170  0.35494  -0.00280
   120.00  -0.00244  0.35404  -0.00275
   130.00  -0.00300  0.35291  -0.00267
   140.00  -0.00336  0.35168  -0.00260
   150.00  -0.00363  0.35053  -0.00264
   160.00  -0.00405  0.34958  -0.00305
   170.00  -0.00197  0.34896  -0.00273
   180.00  0.00010  0.34874  -0.00010
EOT
