AeroDyn airfoil file.  Compatible with AeroDyn v13.0.
Interpolated thickness: 0.821

  1        Number of airfoil tables in this file
  9990     Reynolds number in millions.  For efficiency, make very large if only one table.
  0        Control setting
  10.6736  Stall angle (deg)
  -3.03592 Zero lift angle of attack (deg)
  1.80497  Cn slope for zero lift (dimensionless)
  0.431886 Cn at stall value for positive angle of attack
  -0.8     Cn at stall value for negative angle of attack
  -2.12    Angle of attack for minimum CD (deg)
  0.270039 Minimum CD value
  -180.00  0.00008  0.29369  -0.00008
  -170.00  0.09287  0.30337  0.09413
  -160.00  0.18591  0.33113  -0.03380
  -150.00  0.16706  0.37358  -0.01491
  -140.00  0.15505  0.42537  -0.00175
  -130.00  0.13880  0.48008  0.01099
  -120.00  0.11384  0.53077  0.02364
  -110.00  0.08063  0.57099  0.03537
  -100.00  0.04129  0.59556  0.04498
   -90.00  0.00008  0.60107  0.05129
   -80.00  -0.04114  0.59556  0.05596
   -70.00  -0.08047  0.57099  0.05680
   -60.00  -0.11368  0.53077  0.05461
   -50.00  -0.13865  0.48008  0.05080
   -40.00  -0.15490  0.42537  0.04769
   -30.00  -0.16691  0.37358  0.04955
   -20.00  -0.18528  0.33109  0.06764
   -10.00  -0.07576  0.29253  0.02986
    -4.17  -0.01688  0.27009  -0.03178
    -3.17  0.00997  0.27006  -0.03225
    -2.12  0.03776  0.27004  -0.03263
    -1.08  0.06579  0.27004  -0.03305
    -0.05  0.09358  0.27006  -0.03329
    -0.01  0.09364  0.27006  -0.03329
     1.15  0.12648  0.27011  -0.03359
     2.30  0.15740  0.27016  -0.03385
     3.45  0.18842  0.27024  -0.03402
     4.60  0.21847  0.27030  -0.03398
     5.75  0.24756  0.27039  -0.03377
     6.90  0.27514  0.27054  -0.03326
     8.05  0.29778  0.27070  -0.03187
    10.67  0.30807  0.27368  -0.02479
    13.30  0.26965  0.29453  -0.02290
    15.92  0.26038  0.30743  -0.02490
    18.54  0.26632  0.32029  -0.02802
    21.16  0.26485  0.33642  -0.03309
    23.78  0.25694  0.34754  -0.03954
    26.40  0.24903  0.35867  -0.04598
    29.03  0.24112  0.36979  -0.05243
    31.65  0.23551  0.38249  -0.05717
    34.27  0.23108  0.39602  -0.06103
    36.89  0.22665  0.40954  -0.06489
    39.51  0.22223  0.42306  -0.06876
    42.13  0.21642  0.43722  -0.07207
    44.76  0.21033  0.45151  -0.07527
    47.38  0.20424  0.46579  -0.07846
    50.00  0.19815  0.48008  -0.08166
    60.00  0.16259  0.53077  -0.09257
    70.00  0.11501  0.57099  -0.10206
    80.00  0.05896  0.59556  -0.10986
    90.00  0.00008  0.60107  -0.11546
   100.00  -0.04114  0.59556  -0.12010
   110.00  -0.08047  0.57099  -0.12097
   120.00  -0.11368  0.53077  -0.11876
   130.00  -0.13865  0.48008  -0.11497
   140.00  -0.15490  0.42537  -0.11183
   150.00  -0.16691  0.37358  -0.11369
   160.00  -0.18575  0.33113  -0.13197
   170.00  -0.09272  0.30337  -0.11784
   180.00  0.00008  0.29369  -0.00008
EOT
