AeroDyn airfoil file.  Compatible with AeroDyn v13.0.
Interpolated thickness: 0.666

  1        Number of airfoil tables in this file
  9990     Reynolds number in millions.  For efficiency, make very large if only one table.
  0        Control setting
  10.7156  Stall angle (deg)
  -3.27391 Zero lift angle of attack (deg)
  3.08883  Cn slope for zero lift (dimensionless)
  0.754181 Cn at stall value for positive angle of attack
  -0.8     Cn at stall value for negative angle of attack
  -2.12    Angle of attack for minimum CD (deg)
  0.200799 Minimum CD value
  -180.00  0.00006  0.24492  -0.00006
  -170.00  0.17321  0.26298  0.17573
  -160.00  0.34680  0.31480  -0.06299
  -150.00  0.31164  0.39399  -0.02774
  -140.00  0.28923  0.49063  -0.00318
  -130.00  0.25891  0.59272  0.02060
  -120.00  0.21232  0.68730  0.04420
  -110.00  0.15036  0.76236  0.06608
  -100.00  0.07696  0.80820  0.08402
   -90.00  0.00006  0.81848  0.09579
   -80.00  -0.07685  0.80820  0.10449
   -70.00  -0.15024  0.76236  0.10608
   -60.00  -0.21221  0.68730  0.10199
   -50.00  -0.25879  0.59272  0.09487
   -40.00  -0.28912  0.49063  0.08907
   -30.00  -0.31153  0.39399  0.09254
   -20.00  -0.34581  0.31471  0.12629
   -10.00  -0.14145  0.24277  0.05580
    -4.17  -0.03159  0.20089  -0.05921
    -3.17  0.01851  0.20084  -0.06009
    -2.12  0.07037  0.20080  -0.06079
    -1.08  0.12267  0.20080  -0.06158
    -0.05  0.17453  0.20084  -0.06202
    -0.02  0.17465  0.20084  -0.06202
     1.16  0.23591  0.20094  -0.06259
     2.31  0.29361  0.20102  -0.06307
     3.47  0.35149  0.20117  -0.06340
     4.63  0.40756  0.20129  -0.06332
     5.78  0.46184  0.20145  -0.06292
     6.94  0.51330  0.20173  -0.06198
     8.10  0.55555  0.20203  -0.05939
    10.72  0.57475  0.20760  -0.04616
    13.33  0.50305  0.24649  -0.04264
    15.95  0.48577  0.27058  -0.04638
    18.57  0.49685  0.29456  -0.05219
    21.19  0.49410  0.32467  -0.06166
    23.81  0.47934  0.34542  -0.07369
    26.43  0.46459  0.36617  -0.08571
    29.05  0.44983  0.38692  -0.09774
    31.67  0.43936  0.41063  -0.10659
    34.29  0.43109  0.43586  -0.11380
    36.91  0.42283  0.46110  -0.12100
    39.52  0.41457  0.48633  -0.12821
    42.14  0.40374  0.51275  -0.13439
    44.76  0.39238  0.53940  -0.14035
    47.38  0.38101  0.56606  -0.14632
    50.00  0.36965  0.59272  -0.15229
    60.00  0.30329  0.68730  -0.17264
    70.00  0.21452  0.76236  -0.19035
    80.00  0.10992  0.80820  -0.20489
    90.00  0.00006  0.81848  -0.21535
   100.00  -0.07685  0.80820  -0.22401
   110.00  -0.15024  0.76236  -0.22564
   120.00  -0.21221  0.68730  -0.22151
   130.00  -0.25879  0.59272  -0.21443
   140.00  -0.28912  0.49063  -0.20859
   150.00  -0.31153  0.39399  -0.21206
   160.00  -0.34669  0.31480  -0.24616
   170.00  -0.17310  0.26298  -0.21979
   180.00  0.00006  0.24492  -0.00006
EOT
