AeroDyn airfoil file.  Compatible with AeroDyn v13.0.
Interpolated thickness: 0.92

  1        Number of airfoil tables in this file
  9990     Reynolds number in millions.  For efficiency, make very large if only one table.
  0        Control setting
  10.6467  Stall angle (deg)
  -2.44611 Zero lift angle of attack (deg)
  1.00257  Cn slope for zero lift (dimensionless)
  0.229101 Cn at stall value for positive angle of attack
  -0.8     Cn at stall value for negative angle of attack
  -2.12    Angle of attack for minimum CD (deg)
  0.314263 Minimum CD value
  -180.00  0.00009  0.32483  -0.00009
  -170.00  0.04156  0.32916  0.04202
  -160.00  0.08314  0.34157  -0.01516
  -150.00  0.07472  0.36054  -0.00672
  -140.00  0.06935  0.38368  -0.00084
  -130.00  0.06209  0.40814  0.00486
  -120.00  0.05093  0.43079  0.01051
  -110.00  0.03609  0.44877  0.01575
  -100.00  0.01851  0.45975  0.02005
   -90.00  0.00009  0.46221  0.02287
   -80.00  -0.01833  0.45975  0.02495
   -70.00  -0.03591  0.44877  0.02533
   -60.00  -0.05075  0.43079  0.02435
   -50.00  -0.06191  0.40814  0.02265
   -40.00  -0.06917  0.38368  0.02126
   -30.00  -0.07454  0.36054  0.02209
   -20.00  -0.08275  0.34155  0.03017
   -10.00  -0.03381  0.32432  0.01329
    -4.17  -0.00749  0.31428  -0.01426
    -3.17  0.00451  0.31427  -0.01447
    -2.12  0.01693  0.31426  -0.01464
    -1.08  0.02946  0.31426  -0.01483
    -0.05  0.04188  0.31427  -0.01493
    -0.01  0.04191  0.31427  -0.01493
     1.15  0.05658  0.31430  -0.01507
     2.29  0.07040  0.31432  -0.01518
     3.44  0.08427  0.31435  -0.01526
     4.58  0.09769  0.31438  -0.01524
     5.73  0.11070  0.31442  -0.01515
     6.88  0.12302  0.31449  -0.01492
     8.02  0.13314  0.31456  -0.01430
    10.65  0.13774  0.31589  -0.01113
    13.27  0.12057  0.32521  -0.01029
    15.89  0.11643  0.33098  -0.01119
    18.52  0.11908  0.33672  -0.01258
    21.14  0.11842  0.34393  -0.01485
    23.76  0.11489  0.34890  -0.01773
    26.39  0.11135  0.35387  -0.02061
    29.01  0.10782  0.35884  -0.02349
    31.64  0.10531  0.36452  -0.02561
    34.26  0.10333  0.37057  -0.02733
    36.88  0.10135  0.37661  -0.02906
    39.51  0.09937  0.38265  -0.03078
    42.13  0.09678  0.38898  -0.03226
    44.75  0.09406  0.39537  -0.03369
    47.38  0.09134  0.40175  -0.03512
    50.00  0.08862  0.40814  -0.03655
    60.00  0.07272  0.43079  -0.04143
    70.00  0.05146  0.44877  -0.04567
    80.00  0.02641  0.45975  -0.04915
    90.00  0.00009  0.46221  -0.05166
   100.00  -0.01833  0.45975  -0.05373
   110.00  -0.03591  0.44877  -0.05412
   120.00  -0.05075  0.43079  -0.05313
   130.00  -0.06191  0.40814  -0.05144
   140.00  -0.06917  0.38368  -0.05004
   150.00  -0.07454  0.36054  -0.05087
   160.00  -0.08296  0.34157  -0.05904
   170.00  -0.04138  0.32916  -0.05272
   180.00  0.00009  0.32483  -0.00009
EOT
