AeroDyn airfoil file.  Compatible with AeroDyn v13.0.
Interpolated thickness: 0.477

  1        Number of airfoil tables in this file
  9990     Reynolds number in millions.  For efficiency, make very large if only one table.
  0        Control setting
  10.7669  Stall angle (deg)
  -3.45347 Zero lift angle of attack (deg)
  4.59482  Cn slope for zero lift (dimensionless)
  1.1404   Cn at stall value for positive angle of attack
  -0.8     Cn at stall value for negative angle of attack
  -2.12    Angle of attack for minimum CD (deg)
  0.11637  Minimum CD value
  -180.00  0.00003  0.18546  -0.00003
  -170.00  0.27117  0.21374  0.27523
  -160.00  0.54299  0.29488  -0.09858
  -150.00  0.48794  0.41888  -0.04339
  -140.00  0.45284  0.57021  -0.00492
  -130.00  0.40536  0.73007  0.03231
  -120.00  0.33241  0.87816  0.06927
  -110.00  0.23538  0.99570  0.10354
  -100.00  0.12046  1.06747  0.13161
   -90.00  0.00003  1.08358  0.15006
   -80.00  -0.12040  1.06747  0.16368
   -70.00  -0.23532  0.99570  0.16616
   -60.00  -0.33235  0.87816  0.15976
   -50.00  -0.40529  0.73007  0.14861
   -40.00  -0.45278  0.57021  0.13953
   -30.00  -0.48787  0.41888  0.14496
   -20.00  -0.54155  0.29474  0.19781
   -10.00  -0.22156  0.18209  0.08743
    -4.17  -0.04952  0.11651  -0.09266
    -3.17  0.02893  0.11644  -0.09403
    -2.12  0.11014  0.11637  -0.09513
    -1.08  0.19203  0.11637  -0.09637
    -0.05  0.27323  0.11644  -0.09706
    -0.03  0.27342  0.11644  -0.09706
     1.16  0.36935  0.11659  -0.09795
     2.33  0.45970  0.11671  -0.09870
     3.49  0.55034  0.11694  -0.09922
     4.66  0.63813  0.11714  -0.09909
     5.82  0.72312  0.11740  -0.09847
     6.99  0.80370  0.11783  -0.09700
     8.15  0.86986  0.11830  -0.09293
    10.77  0.89993  0.12701  -0.07223
    13.38  0.78765  0.18792  -0.06672
    16.00  0.76059  0.22563  -0.07257
    18.61  0.77795  0.26319  -0.08167
    21.23  0.77363  0.31033  -0.09650
    23.84  0.75053  0.34283  -0.11533
    26.46  0.72743  0.37532  -0.13416
    29.08  0.70432  0.40781  -0.15299
    31.69  0.68792  0.44493  -0.16685
    34.31  0.67498  0.48445  -0.17813
    36.92  0.66204  0.52396  -0.18942
    39.54  0.64910  0.56348  -0.20070
    42.15  0.63214  0.60484  -0.21038
    44.77  0.61435  0.64658  -0.21972
    47.38  0.59656  0.68833  -0.22906
    50.00  0.57877  0.73007  -0.23841
    60.00  0.47486  0.87816  -0.27027
    70.00  0.33585  0.99570  -0.29800
    80.00  0.17207  1.06747  -0.32078
    90.00  0.00003  1.08358  -0.33716
   100.00  -0.12040  1.06747  -0.35072
   110.00  -0.23532  0.99570  -0.35326
   120.00  -0.33235  0.87816  -0.34679
   130.00  -0.40529  0.73007  -0.33571
   140.00  -0.45278  0.57021  -0.32656
   150.00  -0.48787  0.41888  -0.33200
   160.00  -0.54293  0.29488  -0.38540
   170.00  -0.27110  0.21374  -0.34411
   180.00  0.00003  0.18546  -0.00003
EOT
