AeroDyn airfoil file.  Compatible with AeroDyn v13.0.
Interpolated thickness: 0.303

  1        Number of airfoil tables in this file
  9990     Reynolds number in millions.  For efficiency, make very large if only one table.
  0        Control setting
  10.8142  Stall angle (deg)
  -3.55878 Zero lift angle of attack (deg)
  5.95414  Cn slope for zero lift (dimensionless)
  1.49363  Cn at stall value for positive angle of attack
  -0.8     Cn at stall value for negative angle of attack
  -2.12    Angle of attack for minimum CD (deg)
  0.0386428 Minimum CD value
  -180.00  0.00001  0.13072  -0.00001
  -170.00  0.36135  0.16841  0.36683
  -160.00  0.72360  0.27654  -0.13134
  -150.00  0.65024  0.44180  -0.05779
  -140.00  0.60346  0.64347  -0.00652
  -130.00  0.54018  0.85652  0.04310
  -120.00  0.44297  1.05388  0.09234
  -110.00  0.31366  1.21052  0.13802
  -100.00  0.16050  1.30617  0.17543
   -90.00  0.00001  1.32763  0.20001
   -80.00  -0.16049  1.30617  0.21817
   -70.00  -0.31364  1.21052  0.22147
   -60.00  -0.44295  1.05388  0.21294
   -50.00  -0.54017  0.85652  0.19809
   -40.00  -0.60345  0.64347  0.18598
   -30.00  -0.65022  0.44180  0.19323
   -20.00  -0.72175  0.27636  0.26366
   -10.00  -0.29530  0.12623  0.11656
    -4.17  -0.06602  0.03883  -0.12345
    -3.17  0.03853  0.03873  -0.12528
    -2.12  0.14675  0.03864  -0.12675
    -1.08  0.25588  0.03864  -0.12840
    -0.05  0.36410  0.03873  -0.12932
    -0.04  0.36435  0.03873  -0.12932
     1.17  0.49219  0.03894  -0.13050
     2.34  0.61260  0.03910  -0.13151
     3.52  0.73340  0.03941  -0.13220
     4.69  0.85040  0.03967  -0.13202
     5.86  0.96366  0.04001  -0.13120
     7.03  1.07105  0.04058  -0.12924
     8.20  1.15923  0.04121  -0.12382
    10.81  1.19930  0.05283  -0.09623
    13.43  1.04967  0.13400  -0.08888
    16.04  1.01360  0.18426  -0.09668
    18.65  1.03674  0.23431  -0.10881
    21.26  1.03098  0.29714  -0.12857
    23.88  1.00019  0.34044  -0.15366
    26.49  0.96940  0.38374  -0.17876
    29.10  0.93861  0.42704  -0.20386
    31.71  0.91675  0.47651  -0.22232
    34.33  0.89951  0.52918  -0.23736
    36.94  0.88227  0.58184  -0.25240
    39.55  0.86503  0.63450  -0.26744
    42.16  0.84242  0.68962  -0.28033
    44.78  0.81871  0.74526  -0.29279
    47.39  0.79500  0.80089  -0.30524
    50.00  0.77129  0.85652  -0.31769
    60.00  0.63281  1.05388  -0.36016
    70.00  0.44756  1.21052  -0.39711
    80.00  0.22928  1.30617  -0.42747
    90.00  0.00001  1.32763  -0.44930
   100.00  -0.16049  1.30617  -0.46737
   110.00  -0.31364  1.21052  -0.47076
   120.00  -0.44295  1.05388  -0.46214
   130.00  -0.54017  0.85652  -0.44737
   140.00  -0.60345  0.64347  -0.43517
   150.00  -0.65022  0.44180  -0.44242
   160.00  -0.72359  0.27654  -0.51359
   170.00  -0.36133  0.16841  -0.45856
   180.00  0.00001  0.13072  -0.00001
EOT
