AeroDyn airfoil file.  Compatible with AeroDyn v13.0.
Interpolated thickness: 0.732

  1        Number of airfoil tables in this file
  9990     Reynolds number in millions.  For efficiency, make very large if only one table.
  0        Control setting
  10.6977  Stall angle (deg)
  -3.17302 Zero lift angle of attack (deg)
  2.55555  Cn slope for zero lift (dimensionless)
  0.618673 Cn at stall value for positive angle of attack
  -0.8     Cn at stall value for negative angle of attack
  -2.12    Angle of attack for minimum CD (deg)
  0.230282 Minimum CD value
  -180.00  0.00006  0.26569  -0.00006
  -170.00  0.13900  0.28018  0.14099
  -160.00  0.27829  0.32175  -0.05056
  -150.00  0.25008  0.38530  -0.02228
  -140.00  0.23210  0.46284  -0.00257
  -130.00  0.20776  0.54476  0.01651
  -120.00  0.17039  0.62064  0.03545
  -110.00  0.12066  0.68087  0.05301
  -100.00  0.06178  0.71765  0.06739
   -90.00  0.00006  0.72591  0.07684
   -80.00  -0.06165  0.71765  0.08383
   -70.00  -0.12054  0.68087  0.08510
   -60.00  -0.17026  0.62064  0.08182
   -50.00  -0.20764  0.54476  0.07610
   -40.00  -0.23197  0.46284  0.07145
   -30.00  -0.24995  0.38530  0.07423
   -20.00  -0.27746  0.32168  0.10132
   -10.00  -0.11348  0.26396  0.04475
    -4.17  -0.02532  0.23035  -0.04753
    -3.17  0.01488  0.23032  -0.04823
    -2.12  0.05649  0.23028  -0.04880
    -1.08  0.09845  0.23028  -0.04943
    -0.05  0.14006  0.23032  -0.04979
    -0.02  0.14016  0.23032  -0.04979
     1.15  0.18931  0.23039  -0.05024
     2.31  0.23561  0.23046  -0.05063
     3.46  0.28206  0.23058  -0.05089
     4.62  0.32704  0.23068  -0.05082
     5.77  0.37059  0.23081  -0.05051
     6.92  0.41189  0.23103  -0.04975
     8.08  0.44579  0.23127  -0.04767
    10.70  0.46120  0.23574  -0.03706
    13.32  0.40366  0.26695  -0.03424
    15.94  0.38980  0.28627  -0.03724
    18.56  0.39869  0.30552  -0.04190
    21.18  0.39648  0.32967  -0.04950
    23.80  0.38464  0.34632  -0.05915
    26.42  0.37280  0.36297  -0.06880
    29.04  0.36096  0.37962  -0.07845
    31.66  0.35256  0.39865  -0.08555
    34.28  0.34593  0.41889  -0.09133
    36.90  0.33930  0.43914  -0.09711
    39.52  0.33267  0.45939  -0.10289
    42.14  0.32398  0.48059  -0.10785
    44.76  0.31486  0.50198  -0.11264
    47.38  0.30574  0.52337  -0.11743
    50.00  0.29663  0.54476  -0.12222
    60.00  0.24338  0.62064  -0.13854
    70.00  0.17215  0.68087  -0.15275
    80.00  0.08822  0.71765  -0.16443
    90.00  0.00006  0.72591  -0.17282
   100.00  -0.06165  0.71765  -0.17977
   110.00  -0.12054  0.68087  -0.18107
   120.00  -0.17026  0.62064  -0.17776
   130.00  -0.20764  0.54476  -0.17208
   140.00  -0.23197  0.46284  -0.16739
   150.00  -0.24995  0.38530  -0.17017
   160.00  -0.27816  0.32175  -0.19754
   170.00  -0.13887  0.28018  -0.17638
   180.00  0.00006  0.26569  -0.00006
EOT
