AeroDyn airfoil file.  Compatible with AeroDyn v13.0.
Interpolated thickness: 0.675

  1        Number of airfoil tables in this file
  9990     Reynolds number in millions.  For efficiency, make very large if only one table.
  0        Control setting
  10.7132  Stall angle (deg)
  -3.26194 Zero lift angle of attack (deg)
  3.01634  Cn slope for zero lift (dimensionless)
  0.735722 Cn at stall value for positive angle of attack
  -0.8     Cn at stall value for negative angle of attack
  -2.12    Angle of attack for minimum CD (deg)
  0.204819 Minimum CD value
  -180.00  0.00006  0.24775  -0.00006
  -170.00  0.16854  0.26533  0.17100
  -160.00  0.33746  0.31575  -0.06129
  -150.00  0.30325  0.39281  -0.02700
  -140.00  0.28144  0.48684  -0.00309
  -130.00  0.25193  0.58618  0.02004
  -120.00  0.20660  0.67821  0.04301
  -110.00  0.14631  0.75125  0.06430
  -100.00  0.07489  0.79585  0.08175
   -90.00  0.00006  0.80586  0.09321
   -80.00  -0.07478  0.79585  0.10168
   -70.00  -0.14619  0.75125  0.10322
   -60.00  -0.20649  0.67821  0.09924
   -50.00  -0.25182  0.58618  0.09231
   -40.00  -0.28132  0.48684  0.08667
   -30.00  -0.30313  0.39281  0.09004
   -20.00  -0.33649  0.31566  0.12289
   -10.00  -0.13764  0.24566  0.05429
    -4.17  -0.03073  0.20490  -0.05762
    -3.17  0.01802  0.20486  -0.05847
    -2.12  0.06848  0.20482  -0.05916
    -1.08  0.11937  0.20482  -0.05993
    -0.05  0.16983  0.20486  -0.06035
    -0.02  0.16994  0.20486  -0.06035
     1.16  0.22955  0.20496  -0.06090
     2.31  0.28570  0.20503  -0.06137
     3.47  0.34202  0.20518  -0.06169
     4.63  0.39658  0.20530  -0.06161
     5.78  0.44939  0.20546  -0.06123
     6.94  0.49947  0.20572  -0.06031
     8.09  0.54058  0.20602  -0.05779
    10.71  0.55927  0.21143  -0.04492
    13.33  0.48950  0.24928  -0.04150
    15.95  0.47268  0.27272  -0.04513
    18.57  0.48347  0.29605  -0.05079
    21.19  0.48078  0.32535  -0.06000
    23.81  0.46643  0.34554  -0.07170
    26.43  0.45207  0.36573  -0.08341
    29.05  0.43771  0.38592  -0.09511
    31.67  0.42752  0.40899  -0.10372
    34.29  0.41948  0.43355  -0.11073
    36.90  0.41144  0.45810  -0.11774
    39.52  0.40340  0.48266  -0.12476
    42.14  0.39286  0.50836  -0.13077
    44.76  0.38181  0.53430  -0.13658
    47.38  0.37075  0.56024  -0.14238
    50.00  0.35970  0.58618  -0.14819
    60.00  0.29512  0.67821  -0.16799
    70.00  0.20874  0.75125  -0.18522
    80.00  0.10697  0.79585  -0.19938
    90.00  0.00006  0.80586  -0.20955
   100.00  -0.07478  0.79585  -0.21798
   110.00  -0.14619  0.75125  -0.21956
   120.00  -0.20649  0.67821  -0.21554
   130.00  -0.25182  0.58618  -0.20866
   140.00  -0.28132  0.48684  -0.20297
   150.00  -0.30313  0.39281  -0.20635
   160.00  -0.33734  0.31575  -0.23953
   170.00  -0.16843  0.26533  -0.21387
   180.00  0.00006  0.24775  -0.00006
EOT
