AeroDyn airfoil file.  Compatible with AeroDyn v13.0.
Interpolated thickness: 0.621

  1        Number of airfoil tables in this file
  9990     Reynolds number in millions.  For efficiency, make very large if only one table.
  0        Control setting
  10.7279  Stall angle (deg)
  -3.32748 Zero lift angle of attack (deg)
  3.45023  Cn slope for zero lift (dimensionless)
  0.846382 Cn at stall value for positive angle of attack
  -0.8     Cn at stall value for negative angle of attack
  -2.12    Angle of attack for minimum CD (deg)
  0.180697 Minimum CD value
  -180.00  0.00005  0.23076  -0.00005
  -170.00  0.19653  0.25126  0.19942
  -160.00  0.39351  0.31006  -0.07146
  -150.00  0.35362  0.39992  -0.03147
  -140.00  0.32818  0.50958  -0.00359
  -130.00  0.29378  0.62542  0.02339
  -120.00  0.24091  0.73274  0.05017
  -110.00  0.17060  0.81792  0.07500
  -100.00  0.08732  0.86993  0.09535
   -90.00  0.00005  0.88160  0.10871
   -80.00  -0.08722  0.86993  0.11859
   -70.00  -0.17050  0.81792  0.12038
   -60.00  -0.24081  0.73274  0.11574
   -50.00  -0.29367  0.62542  0.10767
   -40.00  -0.32808  0.50958  0.10108
   -30.00  -0.35352  0.39992  0.10502
   -20.00  -0.39241  0.30996  0.14332
   -10.00  -0.16053  0.22832  0.06333
    -4.17  -0.03586  0.18080  -0.06717
    -3.17  0.02099  0.18075  -0.06817
    -2.12  0.07984  0.18070  -0.06897
    -1.08  0.13918  0.18070  -0.06987
    -0.05  0.19803  0.18075  -0.07036
    -0.02  0.19816  0.18075  -0.07037
     1.16  0.26768  0.18086  -0.07101
     2.32  0.33315  0.18094  -0.07155
     3.48  0.39884  0.18111  -0.07193
     4.63  0.46246  0.18125  -0.07183
     5.79  0.52405  0.18144  -0.07139
     6.95  0.58244  0.18175  -0.07032
     8.11  0.63039  0.18209  -0.06737
    10.73  0.65218  0.18841  -0.05237
    13.35  0.57081  0.23255  -0.04837
    15.96  0.55120  0.25987  -0.05262
    18.58  0.56378  0.28709  -0.05921
    21.20  0.56065  0.32126  -0.06996
    23.82  0.54391  0.34480  -0.08360
    26.44  0.52717  0.36835  -0.09725
    29.05  0.51042  0.39189  -0.11089
    31.67  0.49854  0.41879  -0.12094
    34.29  0.48916  0.44743  -0.12911
    36.91  0.47979  0.47606  -0.13729
    39.53  0.47041  0.50470  -0.14547
    42.15  0.45812  0.53467  -0.15248
    44.76  0.44523  0.56492  -0.15925
    47.38  0.43234  0.59517  -0.16602
    50.00  0.41944  0.62542  -0.17279
    60.00  0.34414  0.73274  -0.19588
    70.00  0.24341  0.81792  -0.21598
    80.00  0.12472  0.86993  -0.23249
    90.00  0.00005  0.88160  -0.24436
   100.00  -0.08722  0.86993  -0.25418
   110.00  -0.17050  0.81792  -0.25602
   120.00  -0.24081  0.73274  -0.25134
   130.00  -0.29367  0.62542  -0.24331
   140.00  -0.32808  0.50958  -0.23668
   150.00  -0.35352  0.39992  -0.24062
   160.00  -0.39341  0.31006  -0.27931
   170.00  -0.19643  0.25126  -0.24939
   180.00  0.00005  0.23076  -0.00005
EOT
