AeroDyn airfoil file.  Compatible with AeroDyn v13.0.
Interpolated thickness: 0.478

  1        Number of airfoil tables in this file
  9990     Reynolds number in millions.  For efficiency, make very large if only one table.
  0        Control setting
  10.7667  Stall angle (deg)
  -3.45276 Zero lift angle of attack (deg)
  4.58694  Cn slope for zero lift (dimensionless)
  1.13837  Cn at stall value for positive angle of attack
  -0.8     Cn at stall value for negative angle of attack
  -2.12    Angle of attack for minimum CD (deg)
  0.116817 Minimum CD value
  -180.00  0.00003  0.18578  -0.00003
  -170.00  0.27065  0.21401  0.27471
  -160.00  0.54195  0.29498  -0.09839
  -150.00  0.48700  0.41875  -0.04330
  -140.00  0.45197  0.56979  -0.00491
  -130.00  0.40458  0.72934  0.03225
  -120.00  0.33178  0.87715  0.06913
  -110.00  0.23493  0.99446  0.10334
  -100.00  0.12023  1.06610  0.13136
   -90.00  0.00003  1.08217  0.14977
   -80.00  -0.12017  1.06610  0.16337
   -70.00  -0.23487  0.99446  0.16584
   -60.00  -0.33171  0.87715  0.15945
   -50.00  -0.40452  0.72934  0.14833
   -40.00  -0.45191  0.56979  0.13926
   -30.00  -0.48694  0.41875  0.14469
   -20.00  -0.54051  0.29485  0.19744
   -10.00  -0.22113  0.18241  0.08727
    -4.17  -0.04942  0.11695  -0.09248
    -3.17  0.02888  0.11689  -0.09385
    -2.12  0.10993  0.11682  -0.09495
    -1.08  0.19166  0.11682  -0.09619
    -0.05  0.27271  0.11689  -0.09688
    -0.03  0.27290  0.11689  -0.09688
     1.16  0.36864  0.11704  -0.09776
     2.33  0.45882  0.11716  -0.09851
     3.49  0.54928  0.11739  -0.09903
     4.66  0.63691  0.11758  -0.09890
     5.82  0.72173  0.11784  -0.09828
     6.99  0.80216  0.11827  -0.09681
     8.15  0.86820  0.11874  -0.09276
    10.77  0.89821  0.12744  -0.07209
    13.38  0.78615  0.18823  -0.06659
    16.00  0.75914  0.22587  -0.07243
    18.61  0.77646  0.26336  -0.08152
    21.23  0.77215  0.31041  -0.09631
    23.84  0.74909  0.34284  -0.11511
    26.46  0.72603  0.37527  -0.13390
    29.08  0.70297  0.40770  -0.15270
    31.69  0.68660  0.44475  -0.16653
    34.31  0.67369  0.48419  -0.17779
    36.92  0.66078  0.52363  -0.18905
    39.54  0.64786  0.56307  -0.20032
    42.15  0.63093  0.60435  -0.20997
    44.77  0.61318  0.64602  -0.21930
    47.38  0.59542  0.68768  -0.22863
    50.00  0.57767  0.72934  -0.23795
    60.00  0.47395  0.87715  -0.26975
    70.00  0.33521  0.99446  -0.29743
    80.00  0.17174  1.06610  -0.32017
    90.00  0.00003  1.08217  -0.33652
   100.00  -0.12017  1.06610  -0.35005
   110.00  -0.23487  0.99446  -0.35259
   120.00  -0.33171  0.87715  -0.34613
   130.00  -0.40452  0.72934  -0.33507
   140.00  -0.45191  0.56979  -0.32594
   150.00  -0.48694  0.41875  -0.33136
   160.00  -0.54189  0.29498  -0.38466
   170.00  -0.27058  0.21401  -0.34345
   180.00  0.00003  0.18578  -0.00003
EOT
