AeroDyn airfoil file.  Compatible with AeroDyn v13.0.
Interpolated thickness: 0.641

  1        Number of airfoil tables in this file
  9990     Reynolds number in millions.  For efficiency, make very large if only one table.
  0        Control setting
  10.7224  Stall angle (deg)
  -3.30485 Zero lift angle of attack (deg)
  3.28983  Cn slope for zero lift (dimensionless)
  0.805423 Cn at stall value for positive angle of attack
  -0.8     Cn at stall value for negative angle of attack
  -2.12    Angle of attack for minimum CD (deg)
  0.189631 Minimum CD value
  -180.00  0.00005  0.23706  -0.00005
  -170.00  0.18617  0.25647  0.18889
  -160.00  0.37275  0.31216  -0.06770
  -150.00  0.33496  0.39728  -0.02981
  -140.00  0.31087  0.50116  -0.00341
  -130.00  0.27828  0.61089  0.02215
  -120.00  0.22821  0.71254  0.04751
  -110.00  0.16160  0.79322  0.07104
  -100.00  0.08272  0.84249  0.09031
   -90.00  0.00005  0.85354  0.10297
   -80.00  -0.08261  0.84249  0.11232
   -70.00  -0.16150  0.79322  0.11402
   -60.00  -0.22810  0.71254  0.10963
   -50.00  -0.27817  0.61089  0.10198
   -40.00  -0.31077  0.50116  0.09574
   -30.00  -0.33486  0.39728  0.09948
   -20.00  -0.37170  0.31207  0.13575
   -10.00  -0.15205  0.23474  0.05999
    -4.17  -0.03396  0.18973  -0.06363
    -3.17  0.01989  0.18968  -0.06458
    -2.12  0.07563  0.18963  -0.06533
    -1.08  0.13184  0.18963  -0.06618
    -0.05  0.18758  0.18968  -0.06666
    -0.02  0.18771  0.18968  -0.06666
     1.16  0.25356  0.18978  -0.06726
     2.32  0.31558  0.18986  -0.06778
     3.47  0.37780  0.19003  -0.06814
     4.63  0.43806  0.19016  -0.06805
     5.79  0.49640  0.19033  -0.06762
     6.95  0.55171  0.19063  -0.06661
     8.10  0.59713  0.19095  -0.06382
    10.72  0.61777  0.19694  -0.04961
    13.34  0.54070  0.23875  -0.04583
    15.96  0.52212  0.26463  -0.04985
    18.58  0.53403  0.29041  -0.05609
    21.20  0.53107  0.32277  -0.06627
    23.81  0.51521  0.34508  -0.07920
    26.43  0.49935  0.36738  -0.09212
    29.05  0.48349  0.38968  -0.10505
    31.67  0.47224  0.41516  -0.11456
    34.29  0.46335  0.44229  -0.12231
    36.91  0.45447  0.46941  -0.13005
    39.53  0.44559  0.49654  -0.13780
    42.14  0.43395  0.52493  -0.14444
    44.76  0.42174  0.55358  -0.15085
    47.38  0.40953  0.58224  -0.15727
    50.00  0.39731  0.61089  -0.16368
    60.00  0.32599  0.71254  -0.18555
    70.00  0.23057  0.79322  -0.20459
    80.00  0.11814  0.84249  -0.22022
    90.00  0.00005  0.85354  -0.23147
   100.00  -0.08261  0.84249  -0.24077
   110.00  -0.16150  0.79322  -0.24252
   120.00  -0.22810  0.71254  -0.23808
   130.00  -0.27817  0.61089  -0.23047
   140.00  -0.31077  0.50116  -0.22419
   150.00  -0.33486  0.39728  -0.22792
   160.00  -0.37265  0.31216  -0.26458
   170.00  -0.18606  0.25647  -0.23624
   180.00  0.00005  0.23706  -0.00005
EOT
