AeroDyn airfoil file.  Compatible with AeroDyn v13.0.
Interpolated thickness: 0.198

  1        Number of airfoil tables in this file
  9990     Reynolds number in millions.  For efficiency, make very large if only one table.
  0        Control setting
  14.5696  Stall angle (deg)
  -4.71456 Zero lift angle of attack (deg)
  6.27608  Cn slope for zero lift (dimensionless)
  2.11235  Cn at stall value for positive angle of attack
  -0.8     Cn at stall value for negative angle of attack
  -4.09    Angle of attack for minimum CD (deg)
  0.0082368 Minimum CD value
  -180.00  0.00000  0.15896  0.00000
  -170.00  0.39820  0.19928  0.40000
  -160.00  0.79740  0.31502  -0.13984
  -150.00  0.71020  0.49168  -0.06234
  -140.00  0.65920  0.70678  -0.00698
  -130.00  0.58960  0.93314  0.04658
  -120.00  0.48360  1.14150  0.09914
  -110.00  0.34200  1.30474  0.14690
  -100.00  0.17500  1.40094  0.18500
   -90.00  0.00000  1.41600  0.20850
   -80.00  -0.17500  1.40094  0.22908
   -70.00  -0.34200  1.30474  0.23358
   -60.00  -0.48360  1.14150  0.22500
   -50.00  -0.58960  0.93314  0.20916
   -40.00  -0.65920  0.70678  0.19560
   -30.00  -0.71020  0.49168  0.20188
   -20.00  -0.79600  0.31476  0.27676
   -10.00  -0.28720  0.10522  0.08186
    -6.04  -0.10468  0.02233  -0.10774
    -5.04  -0.01312  0.01405  -0.13200
    -4.09  0.06905  0.00824  -0.14912
    -3.02  0.18674  0.00825  -0.15067
    -2.02  0.29538  0.00828  -0.15165
    -1.03  0.40369  0.00834  -0.15256
    -0.02  0.51351  0.00850  -0.15354
     0.95  0.62160  0.00872  -0.15381
     1.90  0.72581  0.00898  -0.15439
     2.86  0.82907  0.00934  -0.15509
     3.81  0.92887  0.00967  -0.15438
     4.76  1.02605  0.01012  -0.15324
     5.71  1.11340  0.01060  -0.15042
     7.93  1.23948  0.01625  -0.13485
    10.14  1.28067  0.04048  -0.12144
    12.36  1.34717  0.06885  -0.11660
    14.57  1.36534  0.10692  -0.11314
    16.78  1.25799  0.20816  -0.12638
    19.00  1.20160  0.27731  -0.13766
    21.21  1.12964  0.33658  -0.16646
    23.43  1.10065  0.37574  -0.18863
    25.64  1.07165  0.41490  -0.21080
    27.86  1.04265  0.45406  -0.23297
    30.07  1.01636  0.49509  -0.25313
    32.28  0.99785  0.54115  -0.26819
    34.50  0.98177  0.58874  -0.28172
    36.71  0.96569  0.63633  -0.29526
    38.93  0.94961  0.68392  -0.30879
    41.14  0.93039  0.73284  -0.32112
    43.36  0.90819  0.78291  -0.33236
    45.57  0.88600  0.83299  -0.34360
    47.79  0.86380  0.88306  -0.35484
    50.00  0.84160  0.93314  -0.36608
    60.00  0.69060  1.14150  -0.41070
    70.00  0.48860  1.30474  -0.44878
    80.00  0.25000  1.40094  -0.47900
    90.00  0.00000  1.41600  -0.49950
   100.00  -0.17500  1.40094  -0.52004
   110.00  -0.34200  1.30474  -0.52458
   120.00  -0.48360  1.14150  -0.51596
   130.00  -0.58960  0.93314  -0.50016
   140.00  -0.65920  0.70678  -0.48656
   150.00  -0.71020  0.49168  -0.49284
   160.00  -0.79740  0.31502  -0.56822
   170.00  -0.39820  0.19928  -0.50000
   180.00  0.00000  0.15896  0.00000
EOT
