AeroDyn airfoil file.  Compatible with AeroDyn v13.0.
Interpolated thickness: 0.188

  1        Number of airfoil tables in this file
  9990     Reynolds number in millions.  For efficiency, make very large if only one table.
  0        Control setting
  14.0919  Stall angle (deg)
  -5.01212 Zero lift angle of attack (deg)
  6.21252  Cn slope for zero lift (dimensionless)
  2.07143  Cn at stall value for positive angle of attack
  -0.8     Cn at stall value for negative angle of attack
  -4.09    Angle of attack for minimum CD (deg)
  0.00765223 Minimum CD value
  -180.00  0.00000  0.17040  0.00000
  -170.00  0.39920  0.21054  0.40000
  -160.00  0.79940  0.32576  -0.13904
  -150.00  0.71049  0.50158  -0.06218
  -140.00  0.65949  0.71554  -0.00695
  -130.00  0.58974  0.94048  0.04648
  -120.00  0.48374  1.14721  0.09877
  -110.00  0.34200  1.30865  0.14604
  -100.00  0.17500  1.40293  0.18350
   -90.00  0.00000  1.41600  0.20621
   -80.00  -0.17500  1.40293  0.22698
   -70.00  -0.34200  1.30865  0.23169
   -60.00  -0.48374  1.14721  0.22329
   -50.00  -0.58974  0.94048  0.20753
   -40.00  -0.65949  0.71554  0.19389
   -30.00  -0.71049  0.50158  0.19978
   -20.00  -0.79814  0.32549  0.27420
   -10.00  -0.27891  0.10503  0.07109
    -6.04  -0.09336  0.01782  -0.12134
    -5.04  0.00978  0.01146  -0.14068
    -4.09  0.10046  0.00765  -0.15254
    -3.02  0.21719  0.00770  -0.15397
    -2.02  0.32489  0.00775  -0.15481
    -1.03  0.43202  0.00783  -0.15554
    -0.01  0.54118  0.00800  -0.15653
     0.85  0.63662  0.00821  -0.15651
     1.70  0.72910  0.00848  -0.15693
     2.56  0.82049  0.00883  -0.15766
     3.41  0.90962  0.00916  -0.15700
     4.26  0.99685  0.00955  -0.15607
     5.11  1.07754  0.00996  -0.15409
     7.36  1.22361  0.01491  -0.14070
     9.60  1.30662  0.03210  -0.12783
    11.85  1.40003  0.05273  -0.12066
    14.09  1.42867  0.08783  -0.11462
    16.34  1.28836  0.20442  -0.12822
    18.58  1.21844  0.27597  -0.13836
    20.82  1.13575  0.34036  -0.16881
    23.07  1.10624  0.37985  -0.19105
    25.31  1.07673  0.41934  -0.21328
    27.56  1.04722  0.45883  -0.23552
    29.80  1.01946  0.49952  -0.25646
    32.05  1.00012  0.54561  -0.27198
    34.29  0.98379  0.59360  -0.28561
    36.53  0.96746  0.64158  -0.29925
    38.78  0.95113  0.68957  -0.31288
    41.02  0.93198  0.73871  -0.32545
    43.27  0.90942  0.78915  -0.33678
    45.51  0.88686  0.83959  -0.34811
    47.76  0.86430  0.89004  -0.35944
    50.00  0.84174  0.94048  -0.37077
    60.00  0.69074  1.14721  -0.41499
    70.00  0.48874  1.30865  -0.45254
    80.00  0.25000  1.40293  -0.48207
    90.00  0.00000  1.41600  -0.50179
   100.00  -0.17500  1.40293  -0.52253
   110.00  -0.34200  1.30865  -0.52727
   120.00  -0.48374  1.14721  -0.51883
   130.00  -0.58974  0.94048  -0.50310
   140.00  -0.65949  0.71554  -0.48943
   150.00  -0.71049  0.50158  -0.49533
   160.00  -0.79940  0.32576  -0.57018
   170.00  -0.39920  0.21054  -0.50000
   180.00  0.00000  0.17040  0.00000
EOT
