AeroDyn airfoil file.  Compatible with AeroDyn v13.0.
Interpolated thickness: 0.771

  1        Number of airfoil tables in this file
  9990     Reynolds number in millions.  For efficiency, make very large if only one table.
  0        Control setting
  10.6871  Stall angle (deg)
  -3.09403 Zero lift angle of attack (deg)
  2.2386   Cn slope for zero lift (dimensionless)
  0.538443 Cn at stall value for positive angle of attack
  -0.8     Cn at stall value for negative angle of attack
  -2.12    Angle of attack for minimum CD (deg)
  0.247703 Minimum CD value
  -180.00  0.00007  0.27796  -0.00007
  -170.00  0.11879  0.29034  0.12046
  -160.00  0.23781  0.32586  -0.04322
  -150.00  0.21370  0.38016  -0.01905
  -140.00  0.19834  0.44642  -0.00221
  -130.00  0.17754  0.51642  0.01409
  -120.00  0.14561  0.58126  0.03027
  -110.00  0.10312  0.63272  0.04528
  -100.00  0.05280  0.66415  0.05757
   -90.00  0.00007  0.67120  0.06565
   -80.00  -0.05266  0.66415  0.07161
   -70.00  -0.10298  0.63272  0.07270
   -60.00  -0.14547  0.58126  0.06990
   -50.00  -0.17741  0.51642  0.06501
   -40.00  -0.19820  0.44642  0.06104
   -30.00  -0.21356  0.38016  0.06342
   -20.00  -0.23707  0.32580  0.08656
   -10.00  -0.09695  0.27648  0.03823
    -4.17  -0.02162  0.24776  -0.04063
    -3.17  0.01273  0.24773  -0.04123
    -2.12  0.04828  0.24770  -0.04171
    -1.08  0.08414  0.24770  -0.04225
    -0.05  0.11969  0.24773  -0.04256
    -0.01  0.11977  0.24773  -0.04256
     1.15  0.16178  0.24780  -0.04294
     2.30  0.20134  0.24785  -0.04327
     3.46  0.24103  0.24795  -0.04350
     4.61  0.27947  0.24804  -0.04344
     5.76  0.31668  0.24815  -0.04317
     6.91  0.35196  0.24834  -0.04253
     8.07  0.38093  0.24855  -0.04075
    10.69  0.39410  0.25236  -0.03168
    13.31  0.34494  0.27903  -0.02927
    15.93  0.33309  0.29554  -0.03183
    18.55  0.34069  0.31199  -0.03582
    21.17  0.33880  0.33263  -0.04231
    23.79  0.32868  0.34686  -0.05055
    26.41  0.31857  0.36109  -0.05880
    29.03  0.30845  0.37531  -0.06704
    31.65  0.30127  0.39157  -0.07311
    34.27  0.29560  0.40887  -0.07805
    36.90  0.28994  0.42617  -0.08299
    39.52  0.28427  0.44347  -0.08794
    42.14  0.27684  0.46158  -0.09217
    44.76  0.26906  0.47986  -0.09626
    47.38  0.26127  0.49814  -0.10035
    50.00  0.25348  0.51642  -0.10445
    60.00  0.20798  0.58126  -0.11840
    70.00  0.14711  0.63272  -0.13054
    80.00  0.07540  0.66415  -0.14051
    90.00  0.00007  0.67120  -0.14768
   100.00  -0.05266  0.66415  -0.15362
   110.00  -0.10298  0.63272  -0.15474
   120.00  -0.14547  0.58126  -0.15190
   130.00  -0.17741  0.51642  -0.14705
   140.00  -0.19820  0.44642  -0.14304
   150.00  -0.21356  0.38016  -0.14542
   160.00  -0.23767  0.32586  -0.16881
   170.00  -0.11865  0.29034  -0.15073
   180.00  0.00007  0.27796  -0.00007
EOT
