AeroDyn airfoil file.  Compatible with AeroDyn v13.0.
Interpolated thickness: 0.834

  1        Number of airfoil tables in this file
  9990     Reynolds number in millions.  For efficiency, make very large if only one table.
  0        Control setting
  10.67    Stall angle (deg)
  -2.98962 Zero lift angle of attack (deg)
  1.69995  Cn slope for zero lift (dimensionless)
  0.405279 Cn at stall value for positive angle of attack
  -0.8     Cn at stall value for negative angle of attack
  -2.12    Angle of attack for minimum CD (deg)
  0.275846 Minimum CD value
  -180.00  0.00008  0.29778  -0.00008
  -170.00  0.08614  0.30675  0.08729
  -160.00  0.17241  0.33250  -0.03136
  -150.00  0.15494  0.37186  -0.01384
  -140.00  0.14380  0.41989  -0.00163
  -130.00  0.12873  0.47063  0.01019
  -120.00  0.10558  0.51764  0.02192
  -110.00  0.07478  0.55494  0.03279
  -100.00  0.03830  0.57773  0.04171
   -90.00  0.00008  0.58284  0.04756
   -80.00  -0.03815  0.57773  0.05188
   -70.00  -0.07462  0.55494  0.05267
   -60.00  -0.10542  0.51764  0.05064
   -50.00  -0.12857  0.47063  0.04710
   -40.00  -0.14364  0.41989  0.04422
   -30.00  -0.15478  0.37186  0.04594
   -20.00  -0.17182  0.33246  0.06272
   -10.00  -0.07025  0.29671  0.02768
    -4.17  -0.01565  0.27589  -0.02948
    -3.17  0.00925  0.27587  -0.02991
    -2.12  0.03503  0.27585  -0.03026
    -1.08  0.06102  0.27585  -0.03066
    -0.05  0.08679  0.27587  -0.03088
    -0.01  0.08685  0.27587  -0.03088
     1.15  0.11730  0.27592  -0.03116
     2.30  0.14598  0.27595  -0.03140
     3.45  0.17474  0.27603  -0.03156
     4.60  0.20261  0.27609  -0.03152
     5.75  0.22959  0.27617  -0.03132
     6.90  0.25516  0.27631  -0.03086
     8.05  0.27616  0.27646  -0.02957
    10.67  0.28571  0.27922  -0.02299
    13.29  0.25007  0.29856  -0.02124
    15.91  0.24148  0.31053  -0.02310
    18.54  0.24699  0.32245  -0.02599
    21.16  0.24562  0.33741  -0.03070
    23.78  0.23829  0.34772  -0.03667
    26.40  0.23095  0.35804  -0.04265
    29.02  0.22362  0.36835  -0.04863
    31.65  0.21841  0.38013  -0.05303
    34.27  0.21431  0.39267  -0.05661
    36.89  0.21020  0.40522  -0.06019
    39.51  0.20609  0.41776  -0.06377
    42.13  0.20071  0.43089  -0.06684
    44.76  0.19506  0.44414  -0.06981
    47.38  0.18942  0.45738  -0.07277
    50.00  0.18377  0.47063  -0.07574
    60.00  0.15079  0.51764  -0.08585
    70.00  0.10667  0.55494  -0.09465
    80.00  0.05468  0.57773  -0.10188
    90.00  0.00008  0.58284  -0.10708
   100.00  -0.03815  0.57773  -0.11139
   110.00  -0.07462  0.55494  -0.11219
   120.00  -0.10542  0.51764  -0.11014
   130.00  -0.12857  0.47063  -0.10662
   140.00  -0.14364  0.41989  -0.10372
   150.00  -0.15478  0.37186  -0.10544
   160.00  -0.17226  0.33250  -0.12239
   170.00  -0.08598  0.30675  -0.10929
   180.00  0.00008  0.29778  -0.00008
EOT
