AeroDyn airfoil file.  Compatible with AeroDyn v13.0.
Interpolated thickness: 0.499

  1        Number of airfoil tables in this file
  9990     Reynolds number in millions.  For efficiency, make very large if only one table.
  0        Control setting
  10.761   Stall angle (deg)
  -3.43733 Zero lift angle of attack (deg)
  4.42112  Cn slope for zero lift (dimensionless)
  1.09558  Cn at stall value for positive angle of attack
  -0.8     Cn at stall value for negative angle of attack
  -2.12    Angle of attack for minimum CD (deg)
  0.126198 Minimum CD value
  -180.00  0.00003  0.19238  -0.00003
  -170.00  0.25976  0.21948  0.26365
  -160.00  0.52015  0.29720  -0.09443
  -150.00  0.46741  0.41599  -0.04156
  -140.00  0.43379  0.56095  -0.00471
  -130.00  0.38831  0.71408  0.03095
  -120.00  0.31843  0.85594  0.06635
  -110.00  0.22548  0.96854  0.09918
  -100.00  0.11540  1.03729  0.12607
   -90.00  0.00003  1.05272  0.14374
   -80.00  -0.11533  1.03729  0.15679
   -70.00  -0.22542  0.96854  0.15917
   -60.00  -0.31836  0.85594  0.15303
   -50.00  -0.38824  0.71408  0.14236
   -40.00  -0.43373  0.56095  0.13365
   -30.00  -0.46735  0.41599  0.13886
   -20.00  -0.51876  0.29707  0.18949
   -10.00  -0.21223  0.18915  0.08375
    -4.17  -0.04743  0.12633  -0.08876
    -3.17  0.02772  0.12626  -0.09008
    -2.12  0.10551  0.12620  -0.09114
    -1.08  0.18395  0.12620  -0.09232
    -0.05  0.26174  0.12626  -0.09298
    -0.03  0.26192  0.12626  -0.09298
     1.16  0.35381  0.12641  -0.09383
     2.33  0.44036  0.12652  -0.09455
     3.49  0.52719  0.12675  -0.09505
     4.65  0.61129  0.12693  -0.09493
     5.82  0.69270  0.12718  -0.09433
     6.98  0.76989  0.12759  -0.09292
     8.15  0.83328  0.12804  -0.08903
    10.76  0.86208  0.13639  -0.06920
    13.38  0.75453  0.19474  -0.06391
    15.99  0.72860  0.23086  -0.06952
    18.61  0.74523  0.26684  -0.07824
    21.22  0.74109  0.31200  -0.09244
    23.84  0.71896  0.34313  -0.11048
    26.46  0.69683  0.37425  -0.12852
    29.07  0.67470  0.40538  -0.14656
    31.69  0.65899  0.44094  -0.15983
    34.30  0.64659  0.47879  -0.17064
    36.92  0.63420  0.51664  -0.18145
    39.54  0.62180  0.55450  -0.19226
    42.15  0.60555  0.59412  -0.20153
    44.77  0.58851  0.63411  -0.21048
    47.38  0.57147  0.67409  -0.21943
    50.00  0.55443  0.71408  -0.22838
    60.00  0.45489  0.85594  -0.25891
    70.00  0.32173  0.96854  -0.28547
    80.00  0.16484  1.03729  -0.30729
    90.00  0.00003  1.05272  -0.32298
   100.00  -0.11533  1.03729  -0.33597
   110.00  -0.22542  0.96854  -0.33841
   120.00  -0.31836  0.85594  -0.33221
   130.00  -0.38824  0.71408  -0.32160
   140.00  -0.43373  0.56095  -0.31283
   150.00  -0.46735  0.41599  -0.31804
   160.00  -0.52008  0.29720  -0.36919
   170.00  -0.25969  0.21948  -0.32964
   180.00  0.00003  0.19238  -0.00003
EOT
