AeroDyn airfoil file.  Compatible with AeroDyn v13.0.
Interpolated thickness: 0.787

  1        Number of airfoil tables in this file
  9990     Reynolds number in millions.  For efficiency, make very large if only one table.
  0        Control setting
  10.6828  Stall angle (deg)
  -3.05548 Zero lift angle of attack (deg)
  2.10818  Cn slope for zero lift (dimensionless)
  0.505495 Cn at stall value for positive angle of attack
  -0.8     Cn at stall value for negative angle of attack
  -2.12    Angle of attack for minimum CD (deg)
  0.254851 Minimum CD value
  -180.00  0.00007  0.28299  -0.00007
  -170.00  0.11050  0.29451  0.11203
  -160.00  0.22120  0.32755  -0.04021
  -150.00  0.19878  0.37805  -0.01773
  -140.00  0.18449  0.43968  -0.00206
  -130.00  0.16515  0.50479  0.01310
  -120.00  0.13544  0.56510  0.02815
  -110.00  0.09592  0.61297  0.04211
  -100.00  0.04912  0.64220  0.05354
   -90.00  0.00007  0.64876  0.06105
   -80.00  -0.04897  0.64220  0.06660
   -70.00  -0.09578  0.61297  0.06761
   -60.00  -0.13530  0.56510  0.06501
   -50.00  -0.16500  0.50479  0.06046
   -40.00  -0.18434  0.43968  0.05677
   -30.00  -0.19863  0.37805  0.05898
   -20.00  -0.22050  0.32749  0.08050
   -10.00  -0.09017  0.28162  0.03555
    -4.17  -0.02011  0.25491  -0.03780
    -3.17  0.01184  0.25488  -0.03836
    -2.12  0.04491  0.25485  -0.03880
    -1.08  0.07827  0.25485  -0.03931
    -0.05  0.11134  0.25488  -0.03959
    -0.01  0.11141  0.25488  -0.03959
     1.15  0.15048  0.25494  -0.03995
     2.30  0.18728  0.25499  -0.04026
     3.45  0.22419  0.25508  -0.04047
     4.61  0.25995  0.25516  -0.04041
     5.76  0.29456  0.25527  -0.04016
     6.91  0.32738  0.25544  -0.03956
     8.06  0.35432  0.25564  -0.03791
    10.68  0.36657  0.25919  -0.02948
    13.30  0.32084  0.28399  -0.02723
    15.93  0.30982  0.29935  -0.02961
    18.55  0.31689  0.31465  -0.03332
    21.17  0.31513  0.33385  -0.03936
    23.79  0.30572  0.34708  -0.04703
    26.41  0.29631  0.36031  -0.05470
    29.03  0.28691  0.37354  -0.06237
    31.65  0.28022  0.38866  -0.06801
    34.27  0.27496  0.40476  -0.07261
    36.89  0.26969  0.42085  -0.07720
    39.52  0.26442  0.43694  -0.08180
    42.14  0.25751  0.45379  -0.08574
    44.76  0.25026  0.47079  -0.08954
    47.38  0.24302  0.48779  -0.09335
    50.00  0.23577  0.50479  -0.09716
    60.00  0.19345  0.56510  -0.11013
    70.00  0.13684  0.61297  -0.12143
    80.00  0.07014  0.64220  -0.13070
    90.00  0.00007  0.64876  -0.13737
   100.00  -0.04897  0.64220  -0.14289
   110.00  -0.09578  0.61297  -0.14393
   120.00  -0.13530  0.56510  -0.14130
   130.00  -0.16500  0.50479  -0.13678
   140.00  -0.18434  0.43968  -0.13306
   150.00  -0.19863  0.37805  -0.13527
   160.00  -0.22106  0.32755  -0.15702
   170.00  -0.11035  0.29451  -0.14020
   180.00  0.00007  0.28299  -0.00007
EOT
