AeroDyn airfoil file.  Compatible with AeroDyn v13.0.
Interpolated thickness: 0.902

  1        Number of airfoil tables in this file
  9990     Reynolds number in millions.  For efficiency, make very large if only one table.
  0        Control setting
  10.6516  Stall angle (deg)
  -2.61361 Zero lift angle of attack (deg)
  1.14892  Cn slope for zero lift (dimensionless)
  0.265999 Cn at stall value for positive angle of attack
  -0.8     Cn at stall value for negative angle of attack
  -2.12    Angle of attack for minimum CD (deg)
  0.306222 Minimum CD value
  -180.00  0.00009  0.31917  -0.00009
  -170.00  0.05089  0.32447  0.05149
  -160.00  0.10183  0.33967  -0.01855
  -150.00  0.09151  0.36291  -0.00821
  -140.00  0.08493  0.39126  -0.00100
  -130.00  0.07604  0.42122  0.00597
  -120.00  0.06237  0.44897  0.01290
  -110.00  0.04419  0.47099  0.01932
  -100.00  0.02265  0.48444  0.02458
   -90.00  0.00009  0.48746  0.02804
   -80.00  -0.02248  0.48444  0.03059
   -70.00  -0.04401  0.47099  0.03105
   -60.00  -0.06219  0.44897  0.02985
   -50.00  -0.07586  0.42122  0.02777
   -40.00  -0.08476  0.39126  0.02606
   -30.00  -0.09134  0.36291  0.02708
   -20.00  -0.10139  0.33965  0.03699
   -10.00  -0.04143  0.31854  0.01630
    -4.17  -0.00920  0.30625  -0.01744
    -3.17  0.00550  0.30624  -0.01770
    -2.12  0.02072  0.30622  -0.01791
    -1.08  0.03606  0.30622  -0.01814
    -0.05  0.05128  0.30624  -0.01827
    -0.01  0.05131  0.30624  -0.01827
     1.15  0.06929  0.30626  -0.01843
     2.29  0.08622  0.30629  -0.01858
     3.44  0.10320  0.30633  -0.01867
     4.59  0.11965  0.30637  -0.01865
     5.73  0.13558  0.30641  -0.01853
     6.88  0.15068  0.30650  -0.01826
     8.03  0.16308  0.30658  -0.01749
    10.65  0.16871  0.30822  -0.01362
    13.27  0.14767  0.31963  -0.01258
    15.90  0.14260  0.32670  -0.01368
    18.52  0.14585  0.33373  -0.01538
    21.14  0.14504  0.34257  -0.01816
    23.77  0.14072  0.34866  -0.02169
    26.39  0.13639  0.35474  -0.02522
    29.01  0.13206  0.36083  -0.02875
    31.64  0.12898  0.36779  -0.03135
    34.26  0.12656  0.37519  -0.03346
    36.88  0.12414  0.38260  -0.03557
    39.51  0.12171  0.39000  -0.03769
    42.13  0.11853  0.39775  -0.03950
    44.75  0.11520  0.40557  -0.04125
    47.38  0.11187  0.41340  -0.04300
    50.00  0.10853  0.42122  -0.04475
    60.00  0.08906  0.44897  -0.05072
    70.00  0.06301  0.47099  -0.05592
    80.00  0.03232  0.48444  -0.06019
    90.00  0.00009  0.48746  -0.06326
   100.00  -0.02248  0.48444  -0.06580
   110.00  -0.04401  0.47099  -0.06628
   120.00  -0.06219  0.44897  -0.06506
   130.00  -0.07586  0.42122  -0.06299
   140.00  -0.08476  0.39126  -0.06127
   150.00  -0.09134  0.36291  -0.06229
   160.00  -0.10165  0.33967  -0.07230
   170.00  -0.05072  0.32447  -0.06456
   180.00  0.00009  0.31917  -0.00009
EOT
