AeroDyn airfoil file.  Compatible with AeroDyn v13.0.
Interpolated thickness: 0.393

  1        Number of airfoil tables in this file
  9990     Reynolds number in millions.  For efficiency, make very large if only one table.
  0        Control setting
  10.7897  Stall angle (deg)
  -3.50846 Zero lift angle of attack (deg)
  5.25425  Cn slope for zero lift (dimensionless)
  1.3112   Cn at stall value for positive angle of attack
  -0.8     Cn at stall value for negative angle of attack
  -2.12    Angle of attack for minimum CD (deg)
  0.0788467 Minimum CD value
  -180.00  0.00002  0.15903  -0.00002
  -170.00  0.31470  0.19186  0.31945
  -160.00  0.63018  0.28603  -0.11439
  -150.00  0.56629  0.42995  -0.05034
  -140.00  0.52555  0.60558  -0.00569
  -130.00  0.47045  0.79111  0.03752
  -120.00  0.38578  0.96299  0.08041
  -110.00  0.27317  1.09941  0.12018
  -100.00  0.13979  1.18271  0.15277
   -90.00  0.00002  1.20140  0.17417
   -80.00  -0.13975  1.18271  0.18999
   -70.00  -0.27313  1.09941  0.19286
   -60.00  -0.38574  0.96299  0.18543
   -50.00  -0.47040  0.79111  0.17250
   -40.00  -0.52551  0.60558  0.16195
   -30.00  -0.56625  0.42995  0.16826
   -20.00  -0.62854  0.28587  0.22960
   -10.00  -0.25716  0.15512  0.10149
    -4.17  -0.05749  0.07901  -0.10752
    -3.17  0.03356  0.07893  -0.10912
    -2.12  0.12781  0.07885  -0.11040
    -1.08  0.22285  0.07885  -0.11184
    -0.05  0.31710  0.07893  -0.11263
    -0.04  0.31732  0.07893  -0.11264
     1.17  0.42865  0.07910  -0.11366
     2.34  0.53351  0.07924  -0.11454
     3.50  0.63871  0.07951  -0.11514
     4.67  0.74060  0.07974  -0.11499
     5.84  0.83924  0.08004  -0.11427
     7.01  0.93276  0.08054  -0.11256
     8.18  1.00956  0.08108  -0.10784
    10.79  1.04446  0.09120  -0.08382
    13.40  0.91414  0.16189  -0.07742
    16.02  0.88273  0.20566  -0.08421
    18.63  0.90288  0.24925  -0.09477
    21.25  0.89787  0.30396  -0.11198
    23.86  0.87106  0.34167  -0.13383
    26.47  0.84424  0.37938  -0.15569
    29.09  0.81743  0.41710  -0.17755
    31.70  0.79839  0.46018  -0.19363
    34.32  0.78337  0.50604  -0.20673
    36.93  0.76836  0.55190  -0.21982
    39.54  0.75334  0.59776  -0.23292
    42.16  0.73365  0.64577  -0.24415
    44.77  0.71301  0.69422  -0.25499
    47.39  0.69236  0.74267  -0.26584
    50.00  0.67171  0.79111  -0.27668
    60.00  0.55111  0.96299  -0.31366
    70.00  0.38978  1.09941  -0.34585
    80.00  0.19969  1.18271  -0.37229
    90.00  0.00002  1.20140  -0.39130
   100.00  -0.13975  1.18271  -0.40703
   110.00  -0.27313  1.09941  -0.40998
   120.00  -0.38574  0.96299  -0.40248
   130.00  -0.47040  0.79111  -0.38962
   140.00  -0.52551  0.60558  -0.37900
   150.00  -0.56625  0.42995  -0.38531
   160.00  -0.63014  0.28603  -0.44728
   170.00  -0.31466  0.19186  -0.39936
   180.00  0.00002  0.15903  -0.00002
EOT
