AeroDyn airfoil file.  Compatible with AeroDyn v13.0.
Interpolated thickness: 0.573

  1        Number of airfoil tables in this file
  9990     Reynolds number in millions.  For efficiency, make very large if only one table.
  0        Control setting
  10.7409  Stall angle (deg)
  -3.37564 Zero lift angle of attack (deg)
  3.83376  Cn slope for zero lift (dimensionless)
  0.944562 Cn at stall value for positive angle of attack
  -0.8     Cn at stall value for negative angle of attack
  -2.12    Angle of attack for minimum CD (deg)
  0.159255 Minimum CD value
  -180.00  0.00004  0.21566  -0.00004
  -170.00  0.22141  0.23876  0.22469
  -160.00  0.44334  0.30500  -0.08050
  -150.00  0.39839  0.40624  -0.03544
  -140.00  0.36974  0.52979  -0.00403
  -130.00  0.33097  0.66031  0.02636
  -120.00  0.27141  0.78121  0.05653
  -110.00  0.19219  0.87718  0.08451
  -100.00  0.09837  0.93578  0.10744
   -90.00  0.00004  0.94892  0.12249
   -80.00  -0.09828  0.93578  0.13362
   -70.00  -0.19211  0.87718  0.13564
   -60.00  -0.27133  0.78121  0.13042
   -50.00  -0.33088  0.66031  0.12131
   -40.00  -0.36965  0.52979  0.11390
   -30.00  -0.39830  0.40624  0.11834
   -20.00  -0.44213  0.30488  0.16149
   -10.00  -0.18087  0.21291  0.07137
    -4.17  -0.04041  0.15937  -0.07567
    -3.17  0.02364  0.15931  -0.07679
    -2.12  0.08994  0.15925  -0.07769
    -1.08  0.15680  0.15925  -0.07870
    -0.05  0.22310  0.15931  -0.07926
    -0.03  0.22325  0.15931  -0.07926
     1.16  0.30157  0.15943  -0.07999
     2.32  0.37533  0.15953  -0.08060
     3.48  0.44934  0.15972  -0.08102
     4.64  0.52101  0.15988  -0.08092
     5.80  0.59040  0.16009  -0.08042
     6.96  0.65619  0.16044  -0.07921
     8.12  0.71021  0.16083  -0.07589
    10.74  0.73476  0.16795  -0.05899
    13.36  0.64309  0.21767  -0.05449
    15.98  0.62100  0.24846  -0.05927
    18.59  0.63517  0.27912  -0.06670
    21.21  0.63165  0.31762  -0.07880
    23.83  0.61278  0.34414  -0.09418
    26.44  0.59392  0.37067  -0.10955
    29.06  0.57506  0.39720  -0.12493
    31.68  0.56167  0.42751  -0.13624
    34.30  0.55110  0.45977  -0.14545
    36.91  0.54054  0.49203  -0.15467
    39.53  0.52998  0.52429  -0.16388
    42.15  0.51613  0.55806  -0.17178
    44.77  0.50160  0.59214  -0.17941
    47.38  0.48708  0.62622  -0.18704
    50.00  0.47255  0.66031  -0.19467
    60.00  0.38771  0.78121  -0.22068
    70.00  0.27422  0.87718  -0.24332
    80.00  0.14050  0.93578  -0.26192
    90.00  0.00004  0.94892  -0.27529
   100.00  -0.09828  0.93578  -0.28636
   110.00  -0.19211  0.87718  -0.28844
   120.00  -0.27133  0.78121  -0.28316
   130.00  -0.33088  0.66031  -0.27411
   140.00  -0.36965  0.52979  -0.26664
   150.00  -0.39830  0.40624  -0.27108
   160.00  -0.44325  0.30500  -0.31468
   170.00  -0.22132  0.23876  -0.28096
   180.00  0.00004  0.21566  -0.00004
EOT
