AeroDyn airfoil file.  Compatible with AeroDyn v13.0.
Interpolated thickness: 0.653

  1        Number of airfoil tables in this file
  9990     Reynolds number in millions.  For efficiency, make very large if only one table.
  0        Control setting
  10.7192  Stall angle (deg)
  -3.29039 Zero lift angle of attack (deg)
  3.19342  Cn slope for zero lift (dimensionless)
  0.780832 Cn at stall value for positive angle of attack
  -0.8     Cn at stall value for negative angle of attack
  -2.12    Angle of attack for minimum CD (deg)
  0.194991 Minimum CD value
  -180.00  0.00005  0.24083  -0.00005
  -170.00  0.17995  0.25960  0.18258
  -160.00  0.36030  0.31343  -0.06544
  -150.00  0.32377  0.39570  -0.02882
  -140.00  0.30048  0.49611  -0.00330
  -130.00  0.26898  0.60217  0.02140
  -120.00  0.22058  0.70042  0.04592
  -110.00  0.15620  0.77841  0.06866
  -100.00  0.07996  0.82603  0.08729
   -90.00  0.00005  0.83671  0.09953
   -80.00  -0.07985  0.82603  0.10857
   -70.00  -0.15610  0.77841  0.11021
   -60.00  -0.22047  0.70042  0.10596
   -50.00  -0.26887  0.60217  0.09857
   -40.00  -0.30037  0.49611  0.09254
   -30.00  -0.32366  0.39570  0.09615
   -20.00  -0.35927  0.31334  0.13121
   -10.00  -0.14696  0.23859  0.05798
    -4.17  -0.03282  0.19508  -0.06151
    -3.17  0.01923  0.19504  -0.06242
    -2.12  0.07311  0.19499  -0.06315
    -1.08  0.12744  0.19499  -0.06398
    -0.05  0.18132  0.19504  -0.06443
    -0.02  0.18144  0.19504  -0.06443
     1.16  0.24509  0.19514  -0.06502
     2.31  0.30503  0.19522  -0.06552
     3.47  0.36517  0.19537  -0.06586
     4.63  0.42342  0.19550  -0.06578
     5.79  0.47981  0.19567  -0.06537
     6.94  0.53327  0.19596  -0.06439
     8.10  0.57717  0.19627  -0.06169
    10.72  0.59712  0.20205  -0.04796
    13.34  0.52263  0.24247  -0.04430
    15.96  0.50467  0.26748  -0.04818
    18.58  0.51619  0.29240  -0.05422
    21.19  0.51332  0.32368  -0.06406
    23.81  0.49799  0.34524  -0.07655
    26.43  0.48267  0.36680  -0.08905
    29.05  0.46734  0.38836  -0.10154
    31.67  0.45645  0.41299  -0.11073
    34.29  0.44787  0.43920  -0.11822
    36.91  0.43929  0.46542  -0.12571
    39.53  0.43070  0.49164  -0.13320
    42.14  0.41945  0.51908  -0.13961
    44.76  0.40764  0.54678  -0.14581
    47.38  0.39584  0.57447  -0.15201
    50.00  0.38404  0.60217  -0.15821
    60.00  0.31509  0.70042  -0.17935
    70.00  0.22286  0.77841  -0.19775
    80.00  0.11420  0.82603  -0.21287
    90.00  0.00005  0.83671  -0.22373
   100.00  -0.07985  0.82603  -0.23273
   110.00  -0.15610  0.77841  -0.23442
   120.00  -0.22047  0.70042  -0.23012
   130.00  -0.26887  0.60217  -0.22277
   140.00  -0.30037  0.49611  -0.21670
   150.00  -0.32366  0.39570  -0.22031
   160.00  -0.36019  0.31343  -0.25574
   170.00  -0.17984  0.25960  -0.22834
   180.00  0.00005  0.24083  -0.00005
EOT
