AeroDyn airfoil file.  Compatible with AeroDyn v13.0.
Interpolated thickness: 0.691

  1        Number of airfoil tables in this file
  9990     Reynolds number in millions.  For efficiency, make very large if only one table.
  0        Control setting
  10.7089  Stall angle (deg)
  -3.23944 Zero lift angle of attack (deg)
  2.88728  Cn slope for zero lift (dimensionless)
  0.702891 Cn at stall value for positive angle of attack
  -0.8     Cn at stall value for negative angle of attack
  -2.12    Angle of attack for minimum CD (deg)
  0.211966 Minimum CD value
  -180.00  0.00006  0.25279  -0.00006
  -170.00  0.16025  0.26950  0.16257
  -160.00  0.32085  0.31743  -0.05828
  -150.00  0.28832  0.39070  -0.02567
  -140.00  0.26759  0.48011  -0.00295
  -130.00  0.23953  0.57455  0.01905
  -120.00  0.19644  0.66205  0.04088
  -110.00  0.13911  0.73149  0.06113
  -100.00  0.07121  0.77390  0.07772
   -90.00  0.00006  0.78341  0.08862
   -80.00  -0.07109  0.77390  0.09667
   -70.00  -0.13899  0.73149  0.09813
   -60.00  -0.19632  0.66205  0.09435
   -50.00  -0.23942  0.57455  0.08776
   -40.00  -0.26747  0.48011  0.08239
   -30.00  -0.28821  0.39070  0.08561
   -20.00  -0.31992  0.31735  0.11683
   -10.00  -0.13086  0.25079  0.05162
    -4.17  -0.02921  0.21205  -0.05478
    -3.17  0.01714  0.21201  -0.05560
    -2.12  0.06511  0.21197  -0.05625
    -1.08  0.11349  0.21197  -0.05698
    -0.05  0.16147  0.21201  -0.05739
    -0.02  0.16158  0.21201  -0.05739
     1.16  0.21826  0.21210  -0.05791
     2.31  0.27164  0.21217  -0.05836
     3.47  0.32519  0.21231  -0.05866
     4.62  0.37706  0.21242  -0.05858
     5.78  0.42727  0.21257  -0.05822
     6.93  0.47488  0.21283  -0.05735
     8.09  0.51398  0.21310  -0.05495
    10.71  0.53174  0.21826  -0.04272
    13.33  0.46540  0.25424  -0.03946
    15.95  0.44941  0.27652  -0.04292
    18.57  0.45967  0.29871  -0.04829
    21.19  0.45712  0.32656  -0.05705
    23.81  0.44347  0.34576  -0.06818
    26.43  0.42982  0.36496  -0.07930
    29.04  0.41617  0.38416  -0.09043
    31.66  0.40648  0.40609  -0.09862
    34.28  0.39883  0.42943  -0.10529
    36.90  0.39119  0.45278  -0.11195
    39.52  0.38355  0.47613  -0.11862
    42.14  0.37352  0.50057  -0.12434
    44.76  0.36301  0.52523  -0.12986
    47.38  0.35250  0.54989  -0.13538
    50.00  0.34199  0.57455  -0.14090
    60.00  0.28060  0.66205  -0.15972
    70.00  0.19847  0.73149  -0.17611
    80.00  0.10170  0.77390  -0.18957
    90.00  0.00006  0.78341  -0.19924
   100.00  -0.07109  0.77390  -0.20725
   110.00  -0.13899  0.73149  -0.20876
   120.00  -0.19632  0.66205  -0.20493
   130.00  -0.23942  0.57455  -0.19839
   140.00  -0.26747  0.48011  -0.19298
   150.00  -0.28821  0.39070  -0.19619
   160.00  -0.32073  0.31743  -0.22774
   170.00  -0.16013  0.26950  -0.20335
   180.00  0.00006  0.25279  -0.00006
EOT
