AeroDyn airfoil file.  Compatible with AeroDyn v13.0.
Interpolated thickness: 0.696

  1        Number of airfoil tables in this file
  9990     Reynolds number in millions.  For efficiency, make very large if only one table.
  0        Control setting
  10.7075  Stall angle (deg)
  -3.23205 Zero lift angle of attack (deg)
  2.84691  Cn slope for zero lift (dimensionless)
  0.692627 Cn at stall value for positive angle of attack
  -0.8     Cn at stall value for negative angle of attack
  -2.12    Angle of attack for minimum CD (deg)
  0.2142   Minimum CD value
  -180.00  0.00006  0.25436  -0.00006
  -170.00  0.15766  0.27080  0.15994
  -160.00  0.31566  0.31796  -0.05734
  -150.00  0.28366  0.39004  -0.02526
  -140.00  0.26326  0.47800  -0.00290
  -130.00  0.23566  0.57092  0.01874
  -120.00  0.19326  0.65700  0.04022
  -110.00  0.13686  0.72532  0.06014
  -100.00  0.07006  0.76704  0.07646
   -90.00  0.00006  0.77640  0.08718
   -80.00  -0.06994  0.76704  0.09510
   -70.00  -0.13674  0.72532  0.09654
   -60.00  -0.19314  0.65700  0.09282
   -50.00  -0.23554  0.57092  0.08634
   -40.00  -0.26314  0.47800  0.08106
   -30.00  -0.28354  0.39004  0.08422
   -20.00  -0.31474  0.31788  0.11494
   -10.00  -0.12874  0.25240  0.05078
    -4.17  -0.02874  0.21428  -0.05390
    -3.17  0.01686  0.21424  -0.05470
    -2.12  0.06406  0.21420  -0.05534
    -1.08  0.11166  0.21420  -0.05606
    -0.05  0.15886  0.21424  -0.05646
    -0.02  0.15897  0.21424  -0.05646
     1.16  0.21473  0.21433  -0.05697
     2.31  0.26725  0.21440  -0.05741
     3.47  0.31993  0.21453  -0.05771
     4.62  0.37096  0.21465  -0.05764
     5.78  0.42036  0.21480  -0.05728
     6.93  0.46720  0.21505  -0.05642
     8.09  0.50566  0.21532  -0.05406
    10.71  0.52314  0.22039  -0.04203
    13.33  0.45788  0.25579  -0.03882
    15.95  0.44214  0.27771  -0.04222
    18.57  0.45223  0.29954  -0.04751
    21.19  0.44972  0.32694  -0.05613
    23.81  0.43630  0.34583  -0.06708
    26.42  0.42287  0.36472  -0.07802
    29.04  0.40944  0.38360  -0.08897
    31.66  0.39990  0.40518  -0.09702
    34.28  0.39238  0.42815  -0.10358
    36.90  0.38486  0.45112  -0.11014
    39.52  0.37734  0.47409  -0.11670
    42.14  0.36748  0.49813  -0.12233
    44.76  0.35714  0.52239  -0.12776
    47.38  0.34680  0.54666  -0.13319
    50.00  0.33646  0.57092  -0.13862
    60.00  0.27606  0.65700  -0.15714
    70.00  0.19526  0.72532  -0.17326
    80.00  0.10006  0.76704  -0.18650
    90.00  0.00006  0.77640  -0.19602
   100.00  -0.06994  0.76704  -0.20390
   110.00  -0.13674  0.72532  -0.20538
   120.00  -0.19314  0.65700  -0.20162
   130.00  -0.23554  0.57092  -0.19518
   140.00  -0.26314  0.47800  -0.18986
   150.00  -0.28354  0.39004  -0.19302
   160.00  -0.31554  0.31796  -0.22406
   170.00  -0.15754  0.27080  -0.20006
   180.00  0.00006  0.25436  -0.00006
EOT
