AeroDyn airfoil file.  Compatible with AeroDyn v13.0.
Interpolated thickness: 0.323

  1        Number of airfoil tables in this file
  9990     Reynolds number in millions.  For efficiency, make very large if only one table.
  0        Control setting
  10.8087  Stall angle (deg)
  -3.5482  Zero lift angle of attack (deg)
  5.7992   Cn slope for zero lift (dimensionless)
  1.45314  Cn at stall value for positive angle of attack
  -0.8     Cn at stall value for negative angle of attack
  -2.12    Angle of attack for minimum CD (deg)
  0.047577 Minimum CD value
  -180.00  0.00001  0.13701  -0.00001
  -170.00  0.35098  0.17362  0.35630
  -160.00  0.70284  0.27865  -0.12757
  -150.00  0.63158  0.43917  -0.05613
  -140.00  0.58615  0.63505  -0.00634
  -130.00  0.52469  0.84198  0.04186
  -120.00  0.43026  1.03368  0.08969
  -110.00  0.30466  1.18583  0.13405
  -100.00  0.15590  1.27874  0.17040
   -90.00  0.00001  1.29958  0.19427
   -80.00  -0.15588  1.27874  0.21191
   -70.00  -0.30464  1.18583  0.21511
   -60.00  -0.43024  1.03368  0.20683
   -50.00  -0.52466  0.84198  0.19240
   -40.00  -0.58613  0.63505  0.18064
   -30.00  -0.63156  0.43917  0.18768
   -20.00  -0.70104  0.27847  0.25609
   -10.00  -0.28682  0.13265  0.11321
    -4.17  -0.06413  0.04776  -0.11991
    -3.17  0.03742  0.04767  -0.12169
    -2.12  0.14254  0.04758  -0.12312
    -1.08  0.24854  0.04758  -0.12472
    -0.05  0.35365  0.04767  -0.12561
    -0.04  0.35390  0.04767  -0.12561
     1.17  0.47807  0.04786  -0.12676
     2.34  0.59503  0.04802  -0.12774
     3.51  0.71236  0.04832  -0.12840
     4.68  0.82600  0.04857  -0.12824
     5.85  0.93601  0.04890  -0.12744
     7.03  1.04032  0.04946  -0.12553
     8.20  1.12597  0.05007  -0.12027
    10.81  1.16489  0.06136  -0.09347
    13.42  1.01955  0.14020  -0.08633
    16.03  0.98452  0.18901  -0.09391
    18.65  1.00699  0.23763  -0.10569
    21.26  1.00140  0.29866  -0.12488
    23.87  0.97150  0.34071  -0.14926
    26.49  0.94159  0.38277  -0.17363
    29.10  0.91168  0.42483  -0.19801
    31.71  0.89045  0.47288  -0.21595
    34.32  0.87370  0.52404  -0.23055
    36.94  0.85695  0.57519  -0.24516
    39.55  0.84021  0.62634  -0.25977
    42.16  0.81825  0.67988  -0.27229
    44.77  0.79522  0.73391  -0.28439
    47.39  0.77219  0.78795  -0.29648
    50.00  0.74916  0.84198  -0.30858
    60.00  0.61466  1.03368  -0.34982
    70.00  0.43472  1.18583  -0.38572
    80.00  0.22271  1.27874  -0.41521
    90.00  0.00001  1.29958  -0.43641
   100.00  -0.15588  1.27874  -0.45396
   110.00  -0.30464  1.18583  -0.45725
   120.00  -0.43024  1.03368  -0.44888
   130.00  -0.52466  0.84198  -0.43454
   140.00  -0.58613  0.63505  -0.42269
   150.00  -0.63156  0.43917  -0.42973
   160.00  -0.70282  0.27865  -0.49885
   170.00  -0.35096  0.17362  -0.44541
   180.00  0.00001  0.13701  -0.00001
EOT
