AeroDyn airfoil file.  Compatible with AeroDyn v13.0.
Interpolated thickness: 0.433

  1        Number of airfoil tables in this file
  9990     Reynolds number in millions.  For efficiency, make very large if only one table.
  0        Control setting
  10.7789  Stall angle (deg)
  -3.48345 Zero lift angle of attack (deg)
  4.94099  Cn slope for zero lift (dimensionless)
  1.22993  Cn at stall value for positive angle of attack
  -0.8     Cn at stall value for negative angle of attack
  -2.12    Angle of attack for minimum CD (deg)
  0.0967151 Minimum CD value
  -180.00  0.00003  0.17162  -0.00003
  -170.00  0.29397  0.20228  0.29840
  -160.00  0.58866  0.29024  -0.10686
  -150.00  0.52898  0.42468  -0.04703
  -140.00  0.49093  0.58874  -0.00532
  -130.00  0.43945  0.76204  0.03504
  -120.00  0.36037  0.92260  0.07510
  -110.00  0.25518  1.05002  0.11226
  -100.00  0.13058  1.12783  0.14269
   -90.00  0.00003  1.14529  0.16269
   -80.00  -0.13053  1.12783  0.17746
   -70.00  -0.25512  1.05002  0.18015
   -60.00  -0.36032  0.92260  0.17321
   -50.00  -0.43940  0.76204  0.16112
   -40.00  -0.49088  0.58874  0.15127
   -30.00  -0.52893  0.42468  0.15717
   -20.00  -0.58712  0.29009  0.21446
   -10.00  -0.24020  0.16796  0.09480
    -4.17  -0.05369  0.09686  -0.10044
    -3.17  0.03136  0.09679  -0.10194
    -2.12  0.11939  0.09672  -0.10313
    -1.08  0.20817  0.09672  -0.10447
    -0.05  0.29621  0.09679  -0.10522
    -0.04  0.29641  0.09679  -0.10522
     1.17  0.40041  0.09695  -0.10618
     2.33  0.49836  0.09708  -0.10700
     3.50  0.59663  0.09734  -0.10756
     4.67  0.69180  0.09755  -0.10742
     5.83  0.78394  0.09783  -0.10675
     7.00  0.87130  0.09829  -0.10515
     8.16  0.94304  0.09880  -0.10074
    10.78  0.97564  0.10826  -0.07830
    13.39  0.85391  0.17429  -0.07232
    16.01  0.82457  0.21517  -0.07867
    18.62  0.84339  0.25589  -0.08853
    21.24  0.83871  0.30700  -0.10461
    23.85  0.81366  0.34222  -0.12502
    26.47  0.78862  0.37745  -0.14544
    29.08  0.76357  0.41267  -0.16585
    31.70  0.74578  0.45292  -0.18088
    34.31  0.73176  0.49576  -0.19311
    36.93  0.71773  0.53860  -0.20534
    39.54  0.70371  0.58144  -0.21758
    42.16  0.68532  0.62628  -0.22807
    44.77  0.66603  0.67153  -0.23820
    47.39  0.64674  0.71679  -0.24833
    50.00  0.62746  0.76204  -0.25846
    60.00  0.51480  0.92260  -0.29300
    70.00  0.36410  1.05002  -0.32307
    80.00  0.18654  1.12783  -0.34776
    90.00  0.00003  1.14529  -0.36552
   100.00  -0.13053  1.12783  -0.38021
   110.00  -0.25512  1.05002  -0.38297
   120.00  -0.36032  0.92260  -0.37596
   130.00  -0.43940  0.76204  -0.36395
   140.00  -0.49088  0.58874  -0.35403
   150.00  -0.52893  0.42468  -0.35992
   160.00  -0.58861  0.29024  -0.41781
   170.00  -0.29392  0.20228  -0.37305
   180.00  0.00003  0.17162  -0.00003
EOT
