AeroDyn airfoil file.  Compatible with AeroDyn v13.0.
Interpolated thickness: 0.769

  1        Number of airfoil tables in this file
  9990     Reynolds number in millions.  For efficiency, make very large if only one table.
  0        Control setting
  10.6877  Stall angle (deg)
  -3.09856 Zero lift angle of attack (deg)
  2.25489  Cn slope for zero lift (dimensionless)
  0.542561 Cn at stall value for positive angle of attack
  -0.8     Cn at stall value for negative angle of attack
  -2.12    Angle of attack for minimum CD (deg)
  0.24681  Minimum CD value
  -180.00  0.00007  0.27733  -0.00007
  -170.00  0.11982  0.28982  0.12151
  -160.00  0.23988  0.32565  -0.04359
  -150.00  0.21557  0.38043  -0.01922
  -140.00  0.20007  0.44726  -0.00223
  -130.00  0.17909  0.51787  0.01422
  -120.00  0.14688  0.58328  0.03054
  -110.00  0.10402  0.63519  0.04567
  -100.00  0.05326  0.66690  0.05808
   -90.00  0.00007  0.67401  0.06622
   -80.00  -0.05312  0.66690  0.07224
   -70.00  -0.10388  0.63519  0.07333
   -60.00  -0.14674  0.58328  0.07051
   -50.00  -0.17896  0.51787  0.06558
   -40.00  -0.19993  0.44726  0.06157
   -30.00  -0.21543  0.38043  0.06397
   -20.00  -0.23914  0.32559  0.08732
   -10.00  -0.09780  0.27584  0.03856
    -4.17  -0.02181  0.24687  -0.04098
    -3.17  0.01284  0.24684  -0.04159
    -2.12  0.04870  0.24681  -0.04208
    -1.08  0.08487  0.24681  -0.04262
    -0.05  0.12074  0.24684  -0.04293
    -0.01  0.12082  0.24684  -0.04293
     1.15  0.16319  0.24691  -0.04332
     2.30  0.20310  0.24696  -0.04365
     3.46  0.24313  0.24706  -0.04388
     4.61  0.28191  0.24715  -0.04382
     5.76  0.31944  0.24726  -0.04355
     6.91  0.35504  0.24745  -0.04290
     8.07  0.38426  0.24766  -0.04110
    10.69  0.39754  0.25151  -0.03196
    13.31  0.34795  0.27841  -0.02952
    15.93  0.33600  0.29507  -0.03211
    18.55  0.34366  0.31166  -0.03613
    21.17  0.34176  0.33248  -0.04268
    23.79  0.33155  0.34683  -0.05099
    26.41  0.32135  0.36118  -0.05931
    29.03  0.31114  0.37553  -0.06763
    31.65  0.30390  0.39193  -0.07375
    34.28  0.29818  0.40938  -0.07873
    36.90  0.29247  0.42684  -0.08372
    39.52  0.28675  0.44429  -0.08870
    42.14  0.27926  0.46256  -0.09298
    44.76  0.27140  0.48100  -0.09710
    47.38  0.26355  0.49943  -0.10123
    50.00  0.25569  0.51787  -0.10536
    60.00  0.20979  0.58328  -0.11943
    70.00  0.14840  0.63519  -0.13168
    80.00  0.07606  0.66690  -0.14174
    90.00  0.00007  0.67401  -0.14897
   100.00  -0.05312  0.66690  -0.15496
   110.00  -0.10388  0.63519  -0.15609
   120.00  -0.14674  0.58328  -0.15323
   130.00  -0.17896  0.51787  -0.14834
   140.00  -0.19993  0.44726  -0.14429
   150.00  -0.21543  0.38043  -0.14669
   160.00  -0.23974  0.32565  -0.17028
   170.00  -0.11969  0.28982  -0.15204
   180.00  0.00007  0.27733  -0.00007
EOT
