AeroDyn airfoil file.  Compatible with AeroDyn v13.0.
Interpolated thickness: 0.218

  1        Number of airfoil tables in this file
  9990     Reynolds number in millions.  For efficiency, make very large if only one table.
  0        Control setting
  9.06097  Stall angle (deg)
  -4.13743 Zero lift angle of attack (deg)
  6.39993  Cn slope for zero lift (dimensionless)
  1.47426  Cn at stall value for positive angle of attack
  -0.8     Cn at stall value for negative angle of attack
  -2.02    Angle of attack for minimum CD (deg)
  0.00933714 Minimum CD value
  -180.00  0.00000  0.13607  0.00000
  -170.00  0.39620  0.17677  0.40000
  -160.00  0.79340  0.29353  -0.14144
  -150.00  0.70963  0.47188  -0.06265
  -140.00  0.65863  0.68927  -0.00704
  -130.00  0.58931  0.91845  0.04678
  -120.00  0.48331  1.13007  0.09988
  -110.00  0.34200  1.29691  0.14861
  -100.00  0.17500  1.39697  0.18800
   -90.00  0.00000  1.41600  0.21307
   -80.00  -0.17500  1.39697  0.23328
   -70.00  -0.34200  1.29691  0.23735
   -60.00  -0.48331  1.13007  0.22843
   -50.00  -0.58931  0.91845  0.21242
   -40.00  -0.65863  0.68927  0.19903
   -30.00  -0.70963  0.47188  0.20608
   -20.00  -0.79171  0.29330  0.28187
   -10.00  -0.30377  0.10559  0.10340
    -6.04  -0.12730  0.03135  -0.08056
    -5.04  -0.05892  0.01923  -0.11464
    -4.09  0.00623  0.00941  -0.14228
    -3.02  0.12584  0.00936  -0.14408
    -2.02  0.23636  0.00934  -0.14533
    -1.03  0.34704  0.00937  -0.14660
    -0.03  0.45816  0.00950  -0.14757
     1.15  0.59155  0.00973  -0.14841
     2.30  0.71923  0.01000  -0.14931
     3.45  0.84623  0.01037  -0.14995
     4.60  0.96737  0.01070  -0.14915
     5.76  1.08443  0.01125  -0.14756
     6.91  1.18511  0.01189  -0.14308
     9.06  1.27123  0.01893  -0.12316
    11.22  1.22877  0.05722  -0.10864
    13.37  1.24144  0.10109  -0.10848
    15.53  1.23867  0.14510  -0.11018
    17.68  1.19725  0.21563  -0.12269
    19.83  1.16792  0.27998  -0.13625
    21.99  1.11744  0.32901  -0.16176
    24.14  1.08946  0.36751  -0.18380
    26.30  1.06148  0.40601  -0.20584
    28.45  1.03350  0.44451  -0.22788
    30.61  1.01018  0.48622  -0.24646
    32.76  0.99332  0.53222  -0.26060
    34.92  0.97773  0.57903  -0.27393
    37.07  0.96214  0.62583  -0.28727
    39.23  0.94656  0.67263  -0.30061
    41.38  0.92722  0.72110  -0.31247
    43.54  0.90574  0.77044  -0.32353
    45.69  0.88427  0.81978  -0.33459
    47.85  0.86279  0.86912  -0.34565
    50.00  0.84131  0.91845  -0.35671
    60.00  0.69031  1.13007  -0.40213
    70.00  0.48831  1.29691  -0.44127
    80.00  0.25000  1.39697  -0.47286
    90.00  0.00000  1.41600  -0.49493
   100.00  -0.17500  1.39697  -0.51507
   110.00  -0.34200  1.29691  -0.51921
   120.00  -0.48331  1.13007  -0.51022
   130.00  -0.58931  0.91845  -0.49427
   140.00  -0.65863  0.68927  -0.48082
   150.00  -0.70963  0.47188  -0.48787
   160.00  -0.79340  0.29353  -0.56431
   170.00  -0.39620  0.17677  -0.50000
   180.00  0.00000  0.13607  0.00000
EOT
