AeroDyn airfoil file.  Compatible with AeroDyn v13.0.
Interpolated thickness: 0.574

  1        Number of airfoil tables in this file
  9990     Reynolds number in millions.  For efficiency, make very large if only one table.
  0        Control setting
  10.7406  Stall angle (deg)
  -3.37472 Zero lift angle of attack (deg)
  3.82579  Cn slope for zero lift (dimensionless)
  0.942518 Cn at stall value for positive angle of attack
  -0.8     Cn at stall value for negative angle of attack
  -2.12    Angle of attack for minimum CD (deg)
  0.159701 Minimum CD value
  -180.00  0.00004  0.21598  -0.00004
  -170.00  0.22089  0.23902  0.22417
  -160.00  0.44230  0.30510  -0.08031
  -150.00  0.39746  0.40611  -0.03536
  -140.00  0.36887  0.52937  -0.00402
  -130.00  0.33019  0.65958  0.02630
  -120.00  0.27078  0.78020  0.05640
  -110.00  0.19174  0.87594  0.08432
  -100.00  0.09814  0.93440  0.10718
   -90.00  0.00004  0.94752  0.12221
   -80.00  -0.09805  0.93440  0.13331
   -70.00  -0.19166  0.87594  0.13532
   -60.00  -0.27069  0.78020  0.13011
   -50.00  -0.33011  0.65958  0.12103
   -40.00  -0.36878  0.52937  0.11363
   -30.00  -0.39737  0.40611  0.11806
   -20.00  -0.44109  0.30499  0.16111
   -10.00  -0.18045  0.21323  0.07120
    -4.17  -0.04031  0.15981  -0.07549
    -3.17  0.02359  0.15976  -0.07661
    -2.12  0.08973  0.15970  -0.07751
    -1.08  0.15643  0.15970  -0.07852
    -0.05  0.22257  0.15976  -0.07908
    -0.03  0.22273  0.15976  -0.07908
     1.16  0.30086  0.15988  -0.07980
     2.32  0.37446  0.15998  -0.08041
     3.48  0.44828  0.16017  -0.08084
     4.64  0.51979  0.16033  -0.08073
     5.80  0.58902  0.16054  -0.08023
     6.96  0.65466  0.16089  -0.07903
     8.12  0.70855  0.16127  -0.07571
    10.74  0.73304  0.16837  -0.05885
    13.36  0.64159  0.21798  -0.05436
    15.98  0.61954  0.24870  -0.05913
    18.59  0.63368  0.27929  -0.06654
    21.21  0.63017  0.31769  -0.07862
    23.83  0.61135  0.34416  -0.09396
    26.44  0.59253  0.37062  -0.10930
    29.06  0.57371  0.39709  -0.12463
    31.68  0.56035  0.42732  -0.13592
    34.30  0.54981  0.45951  -0.14511
    36.91  0.53927  0.49170  -0.15430
    39.53  0.52873  0.52388  -0.16350
    42.15  0.51492  0.55758  -0.17138
    44.77  0.50043  0.59158  -0.17899
    47.38  0.48594  0.62558  -0.18660
    50.00  0.47145  0.65958  -0.19421
    60.00  0.38681  0.78020  -0.22016
    70.00  0.27358  0.87594  -0.24275
    80.00  0.14018  0.93440  -0.26131
    90.00  0.00004  0.94752  -0.27465
   100.00  -0.09805  0.93440  -0.28569
   110.00  -0.19166  0.87594  -0.28776
   120.00  -0.27069  0.78020  -0.28249
   130.00  -0.33011  0.65958  -0.27347
   140.00  -0.36878  0.52937  -0.26601
   150.00  -0.39737  0.40611  -0.27044
   160.00  -0.44221  0.30510  -0.31394
   170.00  -0.22080  0.23902  -0.28031
   180.00  0.00004  0.21598  -0.00004
EOT
