AeroDyn airfoil file.  Compatible with AeroDyn v13.0.
Interpolated thickness: 0.885

  1        Number of airfoil tables in this file
  9990     Reynolds number in millions.  For efficiency, make very large if only one table.
  0        Control setting
  10.6562  Stall angle (deg)
  -2.73723 Zero lift angle of attack (deg)
  1.28695  Cn slope for zero lift (dimensionless)
  0.300836 Cn at stall value for positive angle of attack
  -0.8     Cn at stall value for negative angle of attack
  -2.12    Angle of attack for minimum CD (deg)
  0.298628 Minimum CD value
  -180.00  0.00008  0.31382  -0.00008
  -170.00  0.05970  0.32004  0.06044
  -160.00  0.11947  0.33788  -0.02175
  -150.00  0.10737  0.36515  -0.00962
  -140.00  0.09965  0.39842  -0.00116
  -130.00  0.08921  0.43357  0.00703
  -120.00  0.07317  0.46613  0.01515
  -110.00  0.05183  0.49198  0.02269
  -100.00  0.02657  0.50776  0.02886
   -90.00  0.00008  0.51130  0.03292
   -80.00  -0.02640  0.50776  0.03591
   -70.00  -0.05167  0.49198  0.03646
   -60.00  -0.07300  0.46613  0.03505
   -50.00  -0.08904  0.43357  0.03260
   -40.00  -0.09948  0.39842  0.03060
   -30.00  -0.10720  0.36515  0.03180
   -20.00  -0.11900  0.33785  0.04342
   -10.00  -0.04864  0.31308  0.01915
    -4.17  -0.01081  0.29866  -0.02045
    -3.17  0.00644  0.29864  -0.02075
    -2.12  0.02430  0.29863  -0.02100
    -1.08  0.04230  0.29863  -0.02127
    -0.05  0.06016  0.29864  -0.02142
    -0.01  0.06020  0.29864  -0.02142
     1.15  0.08129  0.29868  -0.02162
     2.30  0.10116  0.29870  -0.02178
     3.44  0.12109  0.29875  -0.02189
     4.59  0.14039  0.29880  -0.02187
     5.74  0.15908  0.29885  -0.02173
     6.89  0.17680  0.29895  -0.02141
     8.03  0.19135  0.29905  -0.02051
    10.66  0.19796  0.30097  -0.01596
    13.28  0.17327  0.31436  -0.01475
    15.90  0.16732  0.32265  -0.01604
    18.52  0.17114  0.33091  -0.01804
    21.15  0.17019  0.34128  -0.02130
    23.77  0.16511  0.34842  -0.02544
    26.39  0.16003  0.35557  -0.02958
    29.02  0.15495  0.36271  -0.03372
    31.64  0.15134  0.37087  -0.03677
    34.26  0.14850  0.37956  -0.03925
    36.89  0.14565  0.38825  -0.04173
    39.51  0.14281  0.39694  -0.04421
    42.13  0.13908  0.40604  -0.04634
    44.75  0.13516  0.41521  -0.04839
    47.38  0.13125  0.42439  -0.05045
    50.00  0.12734  0.43357  -0.05250
    60.00  0.10449  0.46613  -0.05951
    70.00  0.07393  0.49198  -0.06560
    80.00  0.03791  0.50776  -0.07061
    90.00  0.00008  0.51130  -0.07421
   100.00  -0.02640  0.50776  -0.07720
   110.00  -0.05167  0.49198  -0.07776
   120.00  -0.07300  0.46613  -0.07633
   130.00  -0.08904  0.43357  -0.07390
   140.00  -0.09948  0.39842  -0.07188
   150.00  -0.10720  0.36515  -0.07308
   160.00  -0.11930  0.33788  -0.08482
   170.00  -0.05953  0.32004  -0.07574
   180.00  0.00008  0.31382  -0.00008
EOT
