AeroDyn airfoil file.  Compatible with AeroDyn v13.0.
Interpolated thickness: 0.642

  1        Number of airfoil tables in this file
  9990     Reynolds number in millions.  For efficiency, make very large if only one table.
  0        Control setting
  10.7222  Stall angle (deg)
  -3.30367 Zero lift angle of attack (deg)
  3.2818   Cn slope for zero lift (dimensionless)
  0.803374 Cn at stall value for positive angle of attack
  -0.8     Cn at stall value for negative angle of attack
  -2.12    Angle of attack for minimum CD (deg)
  0.190078 Minimum CD value
  -180.00  0.00005  0.23737  -0.00005
  -170.00  0.18565  0.25673  0.18837
  -160.00  0.37171  0.31227  -0.06751
  -150.00  0.33403  0.39715  -0.02973
  -140.00  0.31001  0.50074  -0.00340
  -130.00  0.27750  0.61016  0.02209
  -120.00  0.22757  0.71153  0.04738
  -110.00  0.16115  0.79199  0.07084
  -100.00  0.08249  0.84112  0.09006
   -90.00  0.00005  0.85214  0.10268
   -80.00  -0.08238  0.84112  0.11201
   -70.00  -0.16105  0.79199  0.11371
   -60.00  -0.22747  0.71153  0.10933
   -50.00  -0.27740  0.61016  0.10169
   -40.00  -0.30990  0.50074  0.09548
   -30.00  -0.33392  0.39715  0.09920
   -20.00  -0.37067  0.31217  0.13537
   -10.00  -0.15163  0.23506  0.05982
    -4.17  -0.03386  0.19017  -0.06346
    -3.17  0.01984  0.19012  -0.06440
    -2.12  0.07542  0.19008  -0.06515
    -1.08  0.13148  0.19008  -0.06600
    -0.05  0.18706  0.19012  -0.06647
    -0.02  0.18719  0.19012  -0.06647
     1.16  0.25285  0.19023  -0.06708
     2.32  0.31470  0.19031  -0.06759
     3.47  0.37674  0.19047  -0.06795
     4.63  0.43684  0.19060  -0.06786
     5.79  0.49501  0.19078  -0.06744
     6.95  0.55017  0.19107  -0.06643
     8.10  0.59546  0.19140  -0.06365
    10.72  0.61605  0.19736  -0.04947
    13.34  0.53919  0.23906  -0.04570
    15.96  0.52066  0.26487  -0.04971
    18.58  0.53255  0.29058  -0.05594
    21.20  0.52959  0.32285  -0.06608
    23.81  0.51378  0.34509  -0.07897
    26.43  0.49796  0.36733  -0.09186
    29.05  0.48215  0.38957  -0.10476
    31.67  0.47092  0.41498  -0.11424
    34.29  0.46206  0.44203  -0.12197
    36.91  0.45321  0.46908  -0.12969
    39.53  0.44435  0.49613  -0.13741
    42.14  0.43274  0.52444  -0.14404
    44.76  0.42056  0.55301  -0.15043
    47.38  0.40839  0.58159  -0.15683
    50.00  0.39621  0.61016  -0.16323
    60.00  0.32508  0.71153  -0.18504
    70.00  0.22993  0.79199  -0.20402
    80.00  0.11782  0.84112  -0.21961
    90.00  0.00005  0.85214  -0.23082
   100.00  -0.08238  0.84112  -0.24010
   110.00  -0.16105  0.79199  -0.24184
   120.00  -0.22747  0.71153  -0.23742
   130.00  -0.27740  0.61016  -0.22983
   140.00  -0.30990  0.50074  -0.22357
   150.00  -0.33392  0.39715  -0.22729
   160.00  -0.37161  0.31227  -0.26384
   170.00  -0.18554  0.25673  -0.23558
   180.00  0.00005  0.23737  -0.00005
EOT
