AeroDyn airfoil file.  Compatible with AeroDyn v13.0.
Interpolated thickness: 0.632

  1        Number of airfoil tables in this file
  9990     Reynolds number in millions.  For efficiency, make very large if only one table.
  0        Control setting
  10.7249  Stall angle (deg)
  -3.31524 Zero lift angle of attack (deg)
  3.36205  Cn slope for zero lift (dimensionless)
  0.823858 Cn at stall value for positive angle of attack
  -0.8     Cn at stall value for negative angle of attack
  -2.12    Angle of attack for minimum CD (deg)
  0.185611 Minimum CD value
  -180.00  0.00005  0.23423  -0.00005
  -170.00  0.19083  0.25413  0.19363
  -160.00  0.38209  0.31121  -0.06939
  -150.00  0.34336  0.39847  -0.03056
  -140.00  0.31866  0.50495  -0.00349
  -130.00  0.28525  0.61743  0.02271
  -120.00  0.23393  0.72163  0.04871
  -110.00  0.16565  0.80433  0.07282
  -100.00  0.08479  0.85484  0.09258
   -90.00  0.00005  0.86617  0.10555
   -80.00  -0.08469  0.85484  0.11514
   -70.00  -0.16555  0.80433  0.11689
   -60.00  -0.23382  0.72163  0.11238
   -50.00  -0.28515  0.61743  0.10454
   -40.00  -0.31856  0.50495  0.09815
   -30.00  -0.34325  0.39847  0.10197
   -20.00  -0.38102  0.31112  0.13916
   -10.00  -0.15586  0.23185  0.06149
    -4.17  -0.03481  0.18571  -0.06523
    -3.17  0.02039  0.18566  -0.06619
    -2.12  0.07753  0.18561  -0.06697
    -1.08  0.13515  0.18561  -0.06784
    -0.05  0.19228  0.18566  -0.06833
    -0.02  0.19242  0.18566  -0.06833
     1.16  0.25991  0.18576  -0.06895
     2.32  0.32349  0.18585  -0.06948
     3.47  0.38726  0.18601  -0.06984
     4.63  0.44904  0.18615  -0.06975
     5.79  0.50884  0.18633  -0.06932
     6.95  0.56554  0.18664  -0.06828
     8.11  0.61209  0.18697  -0.06542
    10.72  0.63325  0.19310  -0.05085
    13.34  0.55425  0.23596  -0.04697
    15.96  0.53521  0.26249  -0.05109
    18.58  0.54742  0.28892  -0.05750
    21.20  0.54438  0.32209  -0.06793
    23.82  0.52813  0.34495  -0.08118
    26.43  0.51187  0.36781  -0.09443
    29.05  0.49561  0.39068  -0.10768
    31.67  0.48407  0.41680  -0.11743
    34.29  0.47497  0.44460  -0.12537
    36.91  0.46586  0.47241  -0.13331
    39.53  0.45676  0.50021  -0.14125
    42.14  0.44483  0.52931  -0.14806
    44.76  0.43231  0.55869  -0.15463
    47.38  0.41979  0.58806  -0.16121
    50.00  0.40727  0.61743  -0.16778
    60.00  0.33416  0.72163  -0.19020
    70.00  0.23635  0.80433  -0.20971
    80.00  0.12110  0.85484  -0.22574
    90.00  0.00005  0.86617  -0.23727
   100.00  -0.08469  0.85484  -0.24681
   110.00  -0.16555  0.80433  -0.24860
   120.00  -0.23382  0.72163  -0.24405
   130.00  -0.28515  0.61743  -0.23625
   140.00  -0.31856  0.50495  -0.22981
   150.00  -0.34325  0.39847  -0.23363
   160.00  -0.38199  0.31121  -0.27121
   170.00  -0.19073  0.25413  -0.24216
   180.00  0.00005  0.23423  -0.00005
EOT
