AeroDyn airfoil file.  Compatible with AeroDyn v13.0.
Interpolated thickness: 0.94

  1        Number of airfoil tables in this file
  9990     Reynolds number in millions.  For efficiency, make very large if only one table.
  0        Control setting
  10.6413  Stall angle (deg)
  -2.19216 Zero lift angle of attack (deg)
  0.839729 Cn slope for zero lift (dimensionless)
  0.188087 Cn at stall value for positive angle of attack
  -0.8     Cn at stall value for negative angle of attack
  -2.12    Angle of attack for minimum CD (deg)
  0.323197 Minimum CD value
  -180.00  0.00009  0.33112  -0.00009
  -170.00  0.03120  0.33437  0.03149
  -160.00  0.06238  0.34368  -0.01140
  -150.00  0.05607  0.35790  -0.00507
  -140.00  0.05204  0.37526  -0.00065
  -130.00  0.04659  0.39360  0.00362
  -120.00  0.03822  0.41059  0.00786
  -110.00  0.02709  0.42408  0.01179
  -100.00  0.01391  0.43231  0.01501
   -90.00  0.00009  0.43416  0.01713
   -80.00  -0.01372  0.43231  0.01869
   -70.00  -0.02691  0.42408  0.01897
   -60.00  -0.03804  0.41059  0.01824
   -50.00  -0.04641  0.39360  0.01696
   -40.00  -0.05186  0.37526  0.01592
   -30.00  -0.05588  0.35790  0.01654
   -20.00  -0.06204  0.34366  0.02261
   -10.00  -0.02533  0.33074  0.00994
    -4.17  -0.00559  0.32321  -0.01072
    -3.17  0.00341  0.32321  -0.01088
    -2.12  0.01272  0.32320  -0.01100
    -1.08  0.02212  0.32320  -0.01114
    -0.05  0.03143  0.32321  -0.01122
    -0.00  0.03146  0.32321  -0.01122
     1.15  0.04246  0.32322  -0.01133
     2.29  0.05283  0.32324  -0.01141
     3.44  0.06322  0.32326  -0.01147
     4.58  0.07330  0.32329  -0.01146
     5.73  0.08305  0.32331  -0.01139
     6.87  0.09229  0.32336  -0.01122
     8.02  0.09988  0.32342  -0.01075
    10.64  0.10333  0.32442  -0.00838
    13.27  0.09045  0.33141  -0.00774
    15.89  0.08735  0.33573  -0.00841
    18.51  0.08934  0.34004  -0.00946
    21.14  0.08884  0.34545  -0.01116
    23.76  0.08619  0.34918  -0.01332
    26.38  0.08354  0.35290  -0.01548
    29.01  0.08089  0.35663  -0.01764
    31.63  0.07901  0.36089  -0.01923
    34.26  0.07752  0.36542  -0.02052
    36.88  0.07604  0.36996  -0.02182
    39.50  0.07456  0.37449  -0.02311
    42.13  0.07261  0.37924  -0.02422
    44.75  0.07057  0.38402  -0.02530
    47.38  0.06853  0.38881  -0.02637
    50.00  0.06649  0.39360  -0.02744
    60.00  0.05457  0.41059  -0.03109
    70.00  0.03862  0.42408  -0.03428
    80.00  0.01983  0.43231  -0.03689
    90.00  0.00009  0.43416  -0.03877
   100.00  -0.01372  0.43231  -0.04032
   110.00  -0.02691  0.42408  -0.04062
   120.00  -0.03804  0.41059  -0.03987
   130.00  -0.04641  0.39360  -0.03860
   140.00  -0.05186  0.37526  -0.03755
   150.00  -0.05588  0.35790  -0.03818
   160.00  -0.06220  0.34368  -0.04430
   170.00  -0.03101  0.33437  -0.03957
   180.00  0.00009  0.33112  -0.00009
EOT
