AeroDyn airfoil file.  Compatible with AeroDyn v13.0.
Interpolated thickness: 0.818

  1        Number of airfoil tables in this file
  9990     Reynolds number in millions.  For efficiency, make very large if only one table.
  0        Control setting
  10.6744  Stall angle (deg)
  -3.04587 Zero lift angle of attack (deg)
  1.82919  Cn slope for zero lift (dimensionless)
  0.438025 Cn at stall value for positive angle of attack
  -0.8     Cn at stall value for negative angle of attack
  -2.12    Angle of attack for minimum CD (deg)
  0.268699 Minimum CD value
  -180.00  0.00008  0.29274  -0.00008
  -170.00  0.09443  0.30258  0.09571
  -160.00  0.18902  0.33082  -0.03437
  -150.00  0.16986  0.37397  -0.01516
  -140.00  0.15765  0.42663  -0.00178
  -130.00  0.14113  0.48226  0.01118
  -120.00  0.11574  0.53380  0.02404
  -110.00  0.08198  0.57470  0.03596
  -100.00  0.04198  0.59968  0.04574
   -90.00  0.00008  0.60528  0.05215
   -80.00  -0.04183  0.59968  0.05689
   -70.00  -0.08182  0.57470  0.05776
   -60.00  -0.11559  0.53380  0.05553
   -50.00  -0.14097  0.48226  0.05165
   -40.00  -0.15750  0.42663  0.04849
   -30.00  -0.16971  0.37397  0.05038
   -20.00  -0.18839  0.33077  0.06877
   -10.00  -0.07703  0.29157  0.03036
    -4.17  -0.01717  0.26875  -0.03231
    -3.17  0.01013  0.26872  -0.03279
    -2.12  0.03839  0.26870  -0.03317
    -1.08  0.06689  0.26870  -0.03360
    -0.05  0.09515  0.26872  -0.03384
    -0.01  0.09521  0.26872  -0.03384
     1.15  0.12859  0.26877  -0.03415
     2.30  0.16004  0.26882  -0.03441
     3.45  0.19158  0.26890  -0.03459
     4.60  0.22213  0.26897  -0.03455
     5.75  0.25170  0.26906  -0.03433
     6.90  0.27975  0.26921  -0.03382
     8.05  0.30277  0.26937  -0.03240
    10.67  0.31324  0.27240  -0.02520
    13.30  0.27416  0.29360  -0.02328
    15.92  0.26474  0.30672  -0.02532
    18.54  0.27079  0.31979  -0.02849
    21.16  0.26928  0.33620  -0.03365
    23.78  0.26124  0.34750  -0.04020
    26.40  0.25320  0.35881  -0.04675
    29.03  0.24516  0.37012  -0.05330
    31.65  0.23946  0.38304  -0.05813
    34.27  0.23495  0.39679  -0.06205
    36.89  0.23045  0.41054  -0.06598
    39.51  0.22595  0.42429  -0.06991
    42.13  0.22005  0.43868  -0.07327
    44.76  0.21385  0.45321  -0.07653
    47.38  0.20766  0.46774  -0.07978
    50.00  0.20147  0.48226  -0.08303
    60.00  0.16531  0.53380  -0.09412
    70.00  0.11694  0.57470  -0.10377
    80.00  0.05994  0.59968  -0.11169
    90.00  0.00008  0.60528  -0.11739
   100.00  -0.04183  0.59968  -0.12211
   110.00  -0.08182  0.57470  -0.12300
   120.00  -0.11559  0.53380  -0.12075
   130.00  -0.14097  0.48226  -0.11689
   140.00  -0.15750  0.42663  -0.11371
   150.00  -0.16971  0.37397  -0.11560
   160.00  -0.18887  0.33082  -0.13418
   170.00  -0.09428  0.30258  -0.11981
   180.00  0.00008  0.29274  -0.00008
EOT
