AeroDyn airfoil file.  Compatible with AeroDyn v13.0.
Interpolated thickness: 0.608

  1        Number of airfoil tables in this file
  9990     Reynolds number in millions.  For efficiency, make very large if only one table.
  0        Control setting
  10.7314  Stall angle (deg)
  -3.34132 Zero lift angle of attack (deg)
  3.5543   Cn slope for zero lift (dimensionless)
  0.87299  Cn at stall value for positive angle of attack
  -0.8     Cn at stall value for negative angle of attack
  -2.12    Angle of attack for minimum CD (deg)
  0.174889 Minimum CD value
  -180.00  0.00005  0.22667  -0.00005
  -170.00  0.20327  0.24787  0.20627
  -160.00  0.40701  0.30869  -0.07391
  -150.00  0.36574  0.40163  -0.03254
  -140.00  0.33944  0.51505  -0.00371
  -130.00  0.30385  0.63487  0.02419
  -120.00  0.24917  0.74587  0.05189
  -110.00  0.17645  0.83397  0.07758
  -100.00  0.09031  0.88776  0.09862
   -90.00  0.00005  0.89983  0.11245
   -80.00  -0.09021  0.88776  0.12266
   -70.00  -0.17635  0.83397  0.12451
   -60.00  -0.24908  0.74587  0.11972
   -50.00  -0.30375  0.63487  0.11136
   -40.00  -0.33934  0.51505  0.10455
   -30.00  -0.36565  0.40163  0.10863
   -20.00  -0.40588  0.30858  0.14824
   -10.00  -0.16604  0.22415  0.06551
    -4.17  -0.03709  0.17499  -0.06947
    -3.17  0.02171  0.17494  -0.07051
    -2.12  0.08257  0.17489  -0.07133
    -1.08  0.14395  0.17489  -0.07226
    -0.05  0.20482  0.17494  -0.07277
    -0.02  0.20496  0.17494  -0.07278
     1.16  0.27686  0.17505  -0.07344
     2.32  0.34458  0.17514  -0.07400
     3.48  0.41251  0.17532  -0.07439
     4.64  0.47831  0.17547  -0.07429
     5.80  0.54202  0.17566  -0.07383
     6.95  0.60241  0.17598  -0.07273
     8.11  0.65201  0.17633  -0.06968
    10.73  0.67454  0.18287  -0.05416
    13.35  0.59039  0.22852  -0.05003
    15.97  0.57010  0.25678  -0.05442
    18.59  0.58311  0.28493  -0.06124
    21.20  0.57988  0.32027  -0.07235
    23.82  0.56256  0.34462  -0.08647
    26.44  0.54525  0.36898  -0.10058
    29.06  0.52793  0.39333  -0.11469
    31.67  0.51564  0.42115  -0.12508
    34.29  0.50594  0.45077  -0.13354
    36.91  0.49624  0.48039  -0.14200
    39.53  0.48654  0.51001  -0.15046
    42.15  0.47383  0.54101  -0.15771
    44.76  0.46050  0.57230  -0.16471
    47.38  0.44716  0.60358  -0.17171
    50.00  0.43383  0.63487  -0.17872
    60.00  0.35594  0.74587  -0.20260
    70.00  0.25175  0.83397  -0.22339
    80.00  0.12900  0.88776  -0.24046
    90.00  0.00005  0.89983  -0.25273
   100.00  -0.09021  0.88776  -0.26289
   110.00  -0.17635  0.83397  -0.26480
   120.00  -0.24908  0.74587  -0.25995
   130.00  -0.30375  0.63487  -0.25165
   140.00  -0.33934  0.51505  -0.24479
   150.00  -0.36565  0.40163  -0.24887
   160.00  -0.40691  0.30869  -0.28889
   170.00  -0.20317  0.24787  -0.25794
   180.00  0.00005  0.22667  -0.00005
EOT
