AeroDyn airfoil file.  Compatible with AeroDyn v13.0.
Interpolated thickness: 0.884

  1        Number of airfoil tables in this file
  9990     Reynolds number in millions.  For efficiency, make very large if only one table.
  0        Control setting
  10.6565  Stall angle (deg)
  -2.74369 Zero lift angle of attack (deg)
  1.29506  Cn slope for zero lift (dimensionless)
  0.302885 Cn at stall value for positive angle of attack
  -0.8     Cn at stall value for negative angle of attack
  -2.12    Angle of attack for minimum CD (deg)
  0.298182 Minimum CD value
  -180.00  0.00008  0.31351  -0.00008
  -170.00  0.06022  0.31978  0.06097
  -160.00  0.12051  0.33777  -0.02194
  -150.00  0.10830  0.36528  -0.00970
  -140.00  0.10052  0.39884  -0.00117
  -130.00  0.08998  0.43430  0.00709
  -120.00  0.07381  0.46714  0.01529
  -110.00  0.05228  0.49321  0.02289
  -100.00  0.02680  0.50913  0.02911
   -90.00  0.00008  0.51271  0.03320
   -80.00  -0.02663  0.50913  0.03623
   -70.00  -0.05212  0.49321  0.03678
   -60.00  -0.07364  0.46714  0.03536
   -50.00  -0.08982  0.43430  0.03288
   -40.00  -0.10035  0.39884  0.03087
   -30.00  -0.10813  0.36528  0.03207
   -20.00  -0.12004  0.33774  0.04380
   -10.00  -0.04906  0.31276  0.01931
    -4.17  -0.01090  0.29821  -0.02063
    -3.17  0.00650  0.29820  -0.02093
    -2.12  0.02451  0.29818  -0.02118
    -1.08  0.04267  0.29818  -0.02145
    -0.05  0.06068  0.29820  -0.02161
    -0.01  0.06072  0.29820  -0.02161
     1.15  0.08200  0.29823  -0.02180
     2.30  0.10204  0.29826  -0.02197
     3.44  0.12214  0.29831  -0.02208
     4.59  0.14161  0.29835  -0.02206
     5.74  0.16046  0.29841  -0.02192
     6.89  0.17834  0.29850  -0.02159
     8.03  0.19301  0.29861  -0.02069
    10.66  0.19968  0.30054  -0.01610
    13.28  0.17478  0.31405  -0.01488
    15.90  0.16877  0.32242  -0.01617
    18.53  0.17262  0.33075  -0.01819
    21.15  0.17167  0.34120  -0.02148
    23.77  0.16654  0.34841  -0.02566
    26.39  0.16142  0.35562  -0.02983
    29.02  0.15629  0.36282  -0.03401
    31.64  0.15266  0.37106  -0.03708
    34.26  0.14979  0.37982  -0.03959
    36.89  0.14692  0.38858  -0.04209
    39.51  0.14405  0.39735  -0.04459
    42.13  0.14029  0.40652  -0.04674
    44.75  0.13634  0.41578  -0.04881
    47.38  0.13239  0.42504  -0.05088
    50.00  0.12845  0.43430  -0.05296
    60.00  0.10540  0.46714  -0.06002
    70.00  0.07457  0.49321  -0.06617
    80.00  0.03824  0.50913  -0.07123
    90.00  0.00008  0.51271  -0.07486
   100.00  -0.02663  0.50913  -0.07787
   110.00  -0.05212  0.49321  -0.07843
   120.00  -0.07364  0.46714  -0.07700
   130.00  -0.08982  0.43430  -0.07454
   140.00  -0.10035  0.39884  -0.07251
   150.00  -0.10813  0.36528  -0.07371
   160.00  -0.12034  0.33777  -0.08556
   170.00  -0.06005  0.31978  -0.07640
   180.00  0.00008  0.31351  -0.00008
EOT
