AeroDyn airfoil file.  Compatible with AeroDyn v13.0.
Interpolated thickness: 0.55

  1        Number of airfoil tables in this file
  9990     Reynolds number in millions.  For efficiency, make very large if only one table.
  0        Control setting
  10.7471  Stall angle (deg)
  -3.39621 Zero lift angle of attack (deg)
  4.01683  Cn slope for zero lift (dimensionless)
  0.991545 Cn at stall value for positive angle of attack
  -0.8     Cn at stall value for negative angle of attack
  -2.12    Angle of attack for minimum CD (deg)
  0.14898  Minimum CD value
  -180.00  0.00004  0.20843  -0.00004
  -170.00  0.23333  0.23276  0.23680
  -160.00  0.46721  0.30257  -0.08483
  -150.00  0.41984  0.40927  -0.03734
  -140.00  0.38965  0.53947  -0.00424
  -130.00  0.34879  0.67702  0.02779
  -120.00  0.28603  0.80444  0.05958
  -110.00  0.20254  0.90557  0.08907
  -100.00  0.10366  0.96733  0.11323
   -90.00  0.00004  0.98118  0.12910
   -80.00  -0.10358  0.96733  0.14082
   -70.00  -0.20246  0.90557  0.14295
   -60.00  -0.28595  0.80444  0.13745
   -50.00  -0.34871  0.67702  0.12785
   -40.00  -0.38956  0.53947  0.12004
   -30.00  -0.41976  0.40927  0.12472
   -20.00  -0.46595  0.30245  0.17019
   -10.00  -0.19062  0.20553  0.07522
    -4.17  -0.04259  0.14910  -0.07974
    -3.17  0.02491  0.14904  -0.08092
    -2.12  0.09478  0.14898  -0.08187
    -1.08  0.16524  0.14898  -0.08294
    -0.05  0.23511  0.14904  -0.08353
    -0.03  0.23527  0.14904  -0.08353
     1.16  0.31781  0.14917  -0.08429
     2.32  0.39555  0.14927  -0.08494
     3.48  0.47353  0.14947  -0.08538
     4.65  0.54907  0.14964  -0.08527
     5.81  0.62220  0.14986  -0.08474
     6.97  0.69153  0.15023  -0.08347
     8.13  0.74846  0.15064  -0.07998
    10.75  0.77433  0.15814  -0.06216
    13.36  0.67773  0.21055  -0.05742
    15.98  0.65444  0.24299  -0.06246
    18.60  0.66938  0.27531  -0.07029
    21.21  0.66566  0.31587  -0.08304
    23.83  0.64578  0.34383  -0.09924
    26.45  0.62591  0.37178  -0.11545
    29.07  0.60603  0.39974  -0.13165
    31.68  0.59191  0.43168  -0.14357
    34.30  0.58078  0.46568  -0.15328
    36.92  0.56965  0.49968  -0.16299
    39.53  0.55852  0.53368  -0.17270
    42.15  0.54392  0.56927  -0.18103
    44.77  0.52861  0.60519  -0.18907
    47.38  0.51331  0.64110  -0.19711
    50.00  0.49800  0.67702  -0.20515
    60.00  0.40859  0.80444  -0.23256
    70.00  0.28899  0.90557  -0.25642
    80.00  0.14807  0.96733  -0.27602
    90.00  0.00004  0.98118  -0.29011
   100.00  -0.10358  0.96733  -0.30178
   110.00  -0.20246  0.90557  -0.30397
   120.00  -0.28595  0.80444  -0.29840
   130.00  -0.34871  0.67702  -0.28887
   140.00  -0.38956  0.53947  -0.28099
   150.00  -0.41976  0.40927  -0.28567
   160.00  -0.46713  0.30257  -0.33162
   170.00  -0.23325  0.23276  -0.29609
   180.00  0.00004  0.20843  -0.00004
EOT
