AeroDyn airfoil file.  Compatible with AeroDyn v13.0.
Interpolated thickness: 0.941

  1        Number of airfoil tables in this file
  9990     Reynolds number in millions.  For efficiency, make very large if only one table.
  0        Control setting
  10.641   Stall angle (deg)
  -2.17687 Zero lift angle of attack (deg)
  0.831581 Cn slope for zero lift (dimensionless)
  0.186036 Cn at stall value for positive angle of attack
  -0.8     Cn at stall value for negative angle of attack
  -2.12    Angle of attack for minimum CD (deg)
  0.323644 Minimum CD value
  -180.00  0.00009  0.33144  -0.00009
  -170.00  0.03068  0.33463  0.03096
  -160.00  0.06134  0.34378  -0.01121
  -150.00  0.05513  0.35777  -0.00498
  -140.00  0.05117  0.37484  -0.00064
  -130.00  0.04582  0.39288  0.00356
  -120.00  0.03759  0.40958  0.00773
  -110.00  0.02664  0.42284  0.01159
  -100.00  0.01368  0.43094  0.01476
   -90.00  0.00009  0.43276  0.01684
   -80.00  -0.01349  0.43094  0.01838
   -70.00  -0.02646  0.42284  0.01866
   -60.00  -0.03740  0.40958  0.01793
   -50.00  -0.04563  0.39288  0.01668
   -40.00  -0.05099  0.37484  0.01565
   -30.00  -0.05495  0.35777  0.01626
   -20.00  -0.06100  0.34377  0.02223
   -10.00  -0.02491  0.33106  0.00977
    -4.17  -0.00550  0.32366  -0.01054
    -3.17  0.00335  0.32365  -0.01070
    -2.12  0.01251  0.32364  -0.01082
    -1.08  0.02175  0.32364  -0.01096
    -0.05  0.03091  0.32365  -0.01104
    -0.00  0.03093  0.32365  -0.01104
     1.15  0.04175  0.32367  -0.01114
     2.29  0.05195  0.32368  -0.01122
     3.44  0.06217  0.32371  -0.01128
     4.58  0.07208  0.32373  -0.01127
     5.73  0.08166  0.32376  -0.01120
     6.87  0.09075  0.32381  -0.01103
     8.02  0.09822  0.32386  -0.01057
    10.64  0.10161  0.32484  -0.00824
    13.26  0.08894  0.33172  -0.00762
    15.89  0.08589  0.33597  -0.00828
    18.51  0.08785  0.34021  -0.00930
    21.14  0.08736  0.34553  -0.01097
    23.76  0.08476  0.34919  -0.01310
    26.38  0.08215  0.35286  -0.01522
    29.01  0.07954  0.35652  -0.01735
    31.63  0.07769  0.36071  -0.01891
    34.26  0.07623  0.36517  -0.02018
    36.88  0.07477  0.36962  -0.02146
    39.50  0.07331  0.37408  -0.02273
    42.13  0.07140  0.37875  -0.02382
    44.75  0.06939  0.38346  -0.02488
    47.38  0.06739  0.38817  -0.02593
    50.00  0.06538  0.39288  -0.02698
    60.00  0.05366  0.40958  -0.03058
    70.00  0.03798  0.42284  -0.03371
    80.00  0.01950  0.43094  -0.03628
    90.00  0.00009  0.43276  -0.03812
   100.00  -0.01349  0.43094  -0.03965
   110.00  -0.02646  0.42284  -0.03994
   120.00  -0.03740  0.40958  -0.03921
   130.00  -0.04563  0.39288  -0.03796
   140.00  -0.05099  0.37484  -0.03693
   150.00  -0.05495  0.35777  -0.03754
   160.00  -0.06116  0.34378  -0.04357
   170.00  -0.03049  0.33463  -0.03891
   180.00  0.00009  0.33144  -0.00009
EOT
