AeroDyn airfoil file.  Compatible with AeroDyn v13.0.
Interpolated thickness: 0.576

  1        Number of airfoil tables in this file
  9990     Reynolds number in millions.  For efficiency, make very large if only one table.
  0        Control setting
  10.7401  Stall angle (deg)
  -3.37285 Zero lift angle of attack (deg)
  3.80985  Cn slope for zero lift (dimensionless)
  0.93843  Cn at stall value for positive angle of attack
  -0.8     Cn at stall value for negative angle of attack
  -2.12    Angle of attack for minimum CD (deg)
  0.160595 Minimum CD value
  -180.00  0.00004  0.21661  -0.00004
  -170.00  0.21985  0.23954  0.22311
  -160.00  0.44022  0.30531  -0.07993
  -150.00  0.39559  0.40585  -0.03519
  -140.00  0.36714  0.52853  -0.00401
  -130.00  0.32864  0.65813  0.02618
  -120.00  0.26951  0.77818  0.05614
  -110.00  0.19084  0.87347  0.08392
  -100.00  0.09768  0.93166  0.10668
   -90.00  0.00004  0.94472  0.12163
   -80.00  -0.09759  0.93166  0.13268
   -70.00  -0.19076  0.87347  0.13469
   -60.00  -0.26942  0.77818  0.12950
   -50.00  -0.32856  0.65813  0.12046
   -40.00  -0.36705  0.52853  0.11310
   -30.00  -0.39550  0.40585  0.11750
   -20.00  -0.43902  0.30520  0.16035
   -10.00  -0.17960  0.21387  0.07086
    -4.17  -0.04012  0.16071  -0.07514
    -3.17  0.02348  0.16065  -0.07625
    -2.12  0.08931  0.16059  -0.07715
    -1.08  0.15570  0.16059  -0.07815
    -0.05  0.22153  0.16065  -0.07871
    -0.03  0.22168  0.16065  -0.07871
     1.16  0.29945  0.16077  -0.07943
     2.32  0.37270  0.16087  -0.08004
     3.48  0.44618  0.16106  -0.08046
     4.64  0.51735  0.16122  -0.08035
     5.80  0.58626  0.16143  -0.07985
     6.96  0.65158  0.16178  -0.07866
     8.12  0.70522  0.16216  -0.07536
    10.74  0.72960  0.16922  -0.05858
    13.36  0.63858  0.21860  -0.05411
    15.97  0.61663  0.24917  -0.05885
    18.59  0.63071  0.27962  -0.06623
    21.21  0.62721  0.31784  -0.07825
    23.83  0.60848  0.34418  -0.09352
    26.44  0.58975  0.37053  -0.10878
    29.06  0.57102  0.39687  -0.12405
    31.68  0.55772  0.42696  -0.13528
    34.30  0.54723  0.45900  -0.14443
    36.91  0.53674  0.49103  -0.15358
    39.53  0.52625  0.52307  -0.16273
    42.15  0.51250  0.55660  -0.17057
    44.77  0.49808  0.59044  -0.17815
    47.38  0.48366  0.62428  -0.18572
    50.00  0.46923  0.65813  -0.19330
    60.00  0.38499  0.77818  -0.21913
    70.00  0.27230  0.87347  -0.24161
    80.00  0.13952  0.93166  -0.26008
    90.00  0.00004  0.94472  -0.27336
   100.00  -0.09759  0.93166  -0.28435
   110.00  -0.19076  0.87347  -0.28641
   120.00  -0.26942  0.77818  -0.28117
   130.00  -0.32856  0.65813  -0.27219
   140.00  -0.36705  0.52853  -0.26477
   150.00  -0.39550  0.40585  -0.26917
   160.00  -0.44013  0.30531  -0.31247
   170.00  -0.21977  0.23954  -0.27899
   180.00  0.00004  0.21661  -0.00004
EOT
