AeroDyn airfoil file.  Compatible with AeroDyn v13.0.
Interpolated thickness: 0.459

  1        Number of airfoil tables in this file
  9990     Reynolds number in millions.  For efficiency, make very large if only one table.
  0        Control setting
  10.7718  Stall angle (deg)
  -3.46609 Zero lift angle of attack (deg)
  4.73664  Cn slope for zero lift (dimensionless)
  1.17705  Cn at stall value for positive angle of attack
  -0.8     Cn at stall value for negative angle of attack
  -2.12    Angle of attack for minimum CD (deg)
  0.10833  Minimum CD value
  -180.00  0.00003  0.17980  -0.00003
  -170.00  0.28049  0.20906  0.28471
  -160.00  0.56167  0.29298  -0.10196
  -150.00  0.50472  0.42126  -0.04487
  -140.00  0.46842  0.57779  -0.00508
  -130.00  0.41930  0.74315  0.03343
  -120.00  0.34385  0.89634  0.07165
  -110.00  0.24348  1.01792  0.10710
  -100.00  0.12460  1.09217  0.13615
   -90.00  0.00003  1.10882  0.15522
   -80.00  -0.12454  1.09217  0.16932
   -70.00  -0.24342  1.01792  0.17188
   -60.00  -0.34379  0.89634  0.16526
   -50.00  -0.41925  0.74315  0.15373
   -40.00  -0.46836  0.57779  0.14433
   -30.00  -0.50467  0.42126  0.14996
   -20.00  -0.56019  0.29284  0.20463
   -10.00  -0.22918  0.17631  0.09045
    -4.17  -0.05122  0.10847  -0.09584
    -3.17  0.02993  0.10840  -0.09727
    -2.12  0.11392  0.10833  -0.09841
    -1.08  0.19863  0.10833  -0.09969
    -0.05  0.28263  0.10840  -0.10040
    -0.03  0.28283  0.10840  -0.10040
     1.17  0.38205  0.10856  -0.10131
     2.33  0.47551  0.10868  -0.10210
     3.50  0.56927  0.10892  -0.10263
     4.66  0.66009  0.10913  -0.10250
     5.83  0.74800  0.10939  -0.10186
     6.99  0.83135  0.10984  -0.10033
     8.16  0.89980  0.11032  -0.09613
    10.77  0.93090  0.11934  -0.07471
    13.39  0.81476  0.18235  -0.06901
    16.00  0.78676  0.22135  -0.07506
    18.62  0.80472  0.26020  -0.08448
    21.23  0.80026  0.30897  -0.09981
    23.85  0.77636  0.34258  -0.11929
    26.46  0.75246  0.37619  -0.13877
    29.08  0.72856  0.40980  -0.15825
    31.69  0.71159  0.44820  -0.17259
    34.31  0.69821  0.48907  -0.18426
    36.92  0.68482  0.52995  -0.19593
    39.54  0.67144  0.57082  -0.20761
    42.15  0.65389  0.61361  -0.21761
    44.77  0.63549  0.65679  -0.22728
    47.38  0.61709  0.69997  -0.23695
    50.00  0.59869  0.74315  -0.24661
    60.00  0.49120  0.89634  -0.27957
    70.00  0.34741  1.01792  -0.30826
    80.00  0.17799  1.09217  -0.33182
    90.00  0.00003  1.10882  -0.34876
   100.00  -0.12454  1.09217  -0.36278
   110.00  -0.24342  1.01792  -0.36542
   120.00  -0.34379  0.89634  -0.35873
   130.00  -0.41925  0.74315  -0.34727
   140.00  -0.46836  0.57779  -0.33780
   150.00  -0.50467  0.42126  -0.34342
   160.00  -0.56161  0.29298  -0.39866
   170.00  -0.28044  0.20906  -0.35595
   180.00  0.00003  0.17980  -0.00003
EOT
