AeroDyn airfoil file.  Compatible with AeroDyn v13.0.
Interpolated thickness: 0.899

  1        Number of airfoil tables in this file
  9990     Reynolds number in millions.  For efficiency, make very large if only one table.
  0        Control setting
  10.6524  Stall angle (deg)
  -2.63751 Zero lift angle of attack (deg)
  1.17329  Cn slope for zero lift (dimensionless)
  0.272147 Cn at stall value for positive angle of attack
  -0.8     Cn at stall value for negative angle of attack
  -2.12    Angle of attack for minimum CD (deg)
  0.304882 Minimum CD value
  -180.00  0.00009  0.31822  -0.00009
  -170.00  0.05245  0.32369  0.05307
  -160.00  0.10494  0.33936  -0.01912
  -150.00  0.09431  0.36330  -0.00846
  -140.00  0.08753  0.39253  -0.00103
  -130.00  0.07836  0.42340  0.00616
  -120.00  0.06427  0.45200  0.01330
  -110.00  0.04554  0.47470  0.01991
  -100.00  0.02334  0.48856  0.02534
   -90.00  0.00009  0.49167  0.02890
   -80.00  -0.02317  0.48856  0.03153
   -70.00  -0.04536  0.47470  0.03201
   -60.00  -0.06410  0.45200  0.03077
   -50.00  -0.07819  0.42340  0.02862
   -40.00  -0.08736  0.39253  0.02686
   -30.00  -0.09414  0.36330  0.02791
   -20.00  -0.10450  0.33933  0.03812
   -10.00  -0.04271  0.31757  0.01680
    -4.17  -0.00948  0.30491  -0.01797
    -3.17  0.00567  0.30490  -0.01824
    -2.12  0.02135  0.30488  -0.01845
    -1.08  0.03716  0.30488  -0.01869
    -0.05  0.05285  0.30490  -0.01882
    -0.01  0.05288  0.30490  -0.01883
     1.15  0.07141  0.30492  -0.01900
     2.29  0.08886  0.30495  -0.01914
     3.44  0.10636  0.30499  -0.01924
     4.59  0.12331  0.30503  -0.01922
     5.74  0.13973  0.30508  -0.01910
     6.88  0.15529  0.30516  -0.01881
     8.03  0.16807  0.30525  -0.01803
    10.65  0.17387  0.30694  -0.01403
    13.28  0.15219  0.31870  -0.01296
    15.90  0.14696  0.32598  -0.01410
    18.52  0.15032  0.33324  -0.01585
    21.15  0.14948  0.34234  -0.01872
    23.77  0.14502  0.34861  -0.02235
    26.39  0.14056  0.35489  -0.02599
    29.01  0.13610  0.36116  -0.02963
    31.64  0.13293  0.36833  -0.03230
    34.26  0.13043  0.37596  -0.03448
    36.88  0.12793  0.38359  -0.03666
    39.51  0.12543  0.39123  -0.03884
    42.13  0.12216  0.39921  -0.04071
    44.75  0.11872  0.40728  -0.04251
    47.38  0.11529  0.41534  -0.04432
    50.00  0.11185  0.42340  -0.04612
    60.00  0.09178  0.45200  -0.05227
    70.00  0.06494  0.47470  -0.05763
    80.00  0.03331  0.48856  -0.06203
    90.00  0.00009  0.49167  -0.06519
   100.00  -0.02317  0.48856  -0.06781
   110.00  -0.04536  0.47470  -0.06830
   120.00  -0.06410  0.45200  -0.06705
   130.00  -0.07819  0.42340  -0.06491
   140.00  -0.08736  0.39253  -0.06315
   150.00  -0.09414  0.36330  -0.06420
   160.00  -0.10477  0.33936  -0.07451
   170.00  -0.05227  0.32369  -0.06653
   180.00  0.00009  0.31822  -0.00009
EOT
