AeroDyn airfoil file.  Compatible with AeroDyn v13.0.
Interpolated thickness: 0.582

  1        Number of airfoil tables in this file
  9990     Reynolds number in millions.  For efficiency, make very large if only one table.
  0        Control setting
  10.7384  Stall angle (deg)
  -3.36719 Zero lift angle of attack (deg)
  3.762    Cn slope for zero lift (dimensionless)
  0.926166 Cn at stall value for positive angle of attack
  -0.8     Cn at stall value for negative angle of attack
  -2.12    Angle of attack for minimum CD (deg)
  0.163275 Minimum CD value
  -180.00  0.00005  0.21849  -0.00005
  -170.00  0.21674  0.24110  0.21995
  -160.00  0.43399  0.30594  -0.07880
  -150.00  0.38999  0.40505  -0.03469
  -140.00  0.36194  0.52600  -0.00395
  -130.00  0.32399  0.65376  0.02580
  -120.00  0.26569  0.77212  0.05534
  -110.00  0.18814  0.86606  0.08273
  -100.00  0.09629  0.92343  0.10517
   -90.00  0.00005  0.93630  0.11991
   -80.00  -0.09620  0.92343  0.13080
   -70.00  -0.18805  0.86606  0.13278
   -60.00  -0.26560  0.77212  0.12766
   -50.00  -0.32390  0.65376  0.11875
   -40.00  -0.36185  0.52600  0.11149
   -30.00  -0.38990  0.40505  0.11584
   -20.00  -0.43280  0.30583  0.15808
   -10.00  -0.17705  0.21580  0.06986
    -4.17  -0.03955  0.16339  -0.07407
    -3.17  0.02314  0.16333  -0.07517
    -2.12  0.08804  0.16328  -0.07605
    -1.08  0.15349  0.16328  -0.07704
    -0.05  0.21839  0.16333  -0.07759
    -0.03  0.21855  0.16333  -0.07760
     1.16  0.29521  0.16345  -0.07830
     2.32  0.36743  0.16355  -0.07891
     3.48  0.43987  0.16373  -0.07932
     4.64  0.51003  0.16389  -0.07922
     5.80  0.57796  0.16409  -0.07872
     6.96  0.64236  0.16444  -0.07754
     8.12  0.69524  0.16482  -0.07429
    10.74  0.71928  0.17178  -0.05775
    13.36  0.62954  0.22046  -0.05334
    15.97  0.60791  0.25060  -0.05802
    18.59  0.62178  0.28062  -0.06529
    21.21  0.61833  0.31830  -0.07714
    23.83  0.59987  0.34427  -0.09219
    26.44  0.58140  0.37024  -0.10724
    29.06  0.56294  0.39620  -0.12230
    31.68  0.54983  0.42587  -0.13337
    34.30  0.53949  0.45745  -0.14239
    36.91  0.52915  0.48904  -0.15141
    39.53  0.51881  0.52062  -0.16043
    42.15  0.50525  0.55368  -0.16816
    44.77  0.49103  0.58704  -0.17563
    47.38  0.47681  0.62040  -0.18310
    50.00  0.46259  0.65376  -0.19056
    60.00  0.37954  0.77212  -0.21603
    70.00  0.26844  0.86606  -0.23819
    80.00  0.13754  0.92343  -0.25640
    90.00  0.00005  0.93630  -0.26949
   100.00  -0.09620  0.92343  -0.28032
   110.00  -0.18805  0.86606  -0.28236
   120.00  -0.26560  0.77212  -0.27719
   130.00  -0.32390  0.65376  -0.26833
   140.00  -0.36185  0.52600  -0.26102
   150.00  -0.38990  0.40505  -0.26536
   160.00  -0.43390  0.30594  -0.30804
   170.00  -0.21665  0.24110  -0.27504
   180.00  0.00005  0.21849  -0.00005
EOT
