AeroDyn airfoil file.  Compatible with AeroDyn v13.0.
Interpolated thickness: 0.207

  1        Number of airfoil tables in this file
  9990     Reynolds number in millions.  For efficiency, make very large if only one table.
  0        Control setting
  14.9995  Stall angle (deg)
  -4.45331 Zero lift angle of attack (deg)
  6.32891  Cn slope for zero lift (dimensionless)
  2.14877  Cn at stall value for positive angle of attack
  -0.8     Cn at stall value for negative angle of attack
  -3.02    Angle of attack for minimum CD (deg)
  0.00875388 Minimum CD value
  -180.00  0.00000  0.14866  0.00000
  -170.00  0.39730  0.18915  0.40000
  -160.00  0.79560  0.30535  -0.14056
  -150.00  0.70994  0.48277  -0.06248
  -140.00  0.65894  0.69890  -0.00701
  -130.00  0.58947  0.92653  0.04667
  -120.00  0.48347  1.13636  0.09947
  -110.00  0.34200  1.30122  0.14767
  -100.00  0.17500  1.39915  0.18635
   -90.00  0.00000  1.41600  0.21056
   -80.00  -0.17500  1.39915  0.23097
   -70.00  -0.34200  1.30122  0.23528
   -60.00  -0.48347  1.13636  0.22654
   -50.00  -0.58947  0.92653  0.21063
   -40.00  -0.65894  0.69890  0.19714
   -30.00  -0.70994  0.48277  0.20377
   -20.00  -0.79407  0.30510  0.27906
   -10.00  -0.29466  0.10539  0.09155
    -6.04  -0.11486  0.02639  -0.09551
    -5.04  -0.03373  0.01638  -0.12419
    -4.09  0.04078  0.00876  -0.14605
    -3.02  0.15934  0.00875  -0.14771
    -2.02  0.26882  0.00876  -0.14880
    -1.03  0.37820  0.00881  -0.14988
    -0.03  0.48860  0.00895  -0.15085
     1.04  0.60808  0.00917  -0.15138
     2.08  0.72285  0.00944  -0.15211
     3.12  0.83679  0.00981  -0.15278
     4.17  0.94620  0.01014  -0.15203
     5.21  1.05232  0.01063  -0.15068
     6.25  1.14567  0.01118  -0.14712
     8.44  1.25376  0.01746  -0.12959
    10.62  1.25732  0.04801  -0.11568
    12.81  1.29959  0.08336  -0.11294
    15.00  1.30834  0.12410  -0.11181
    17.19  1.23065  0.21152  -0.12472
    19.37  1.18644  0.27851  -0.13703
    21.56  1.12415  0.33318  -0.16435
    23.75  1.09561  0.37204  -0.18646
    25.94  1.06707  0.41090  -0.20857
    28.12  1.03853  0.44976  -0.23068
    30.31  1.01358  0.49110  -0.25013
    32.50  0.99581  0.53713  -0.26477
    34.69  0.97995  0.58437  -0.27822
    36.87  0.96409  0.63160  -0.29166
    39.06  0.94824  0.67884  -0.30511
    41.25  0.92896  0.72756  -0.31723
    43.44  0.90709  0.77730  -0.32839
    45.62  0.88522  0.82704  -0.33955
    47.81  0.86334  0.87679  -0.35070
    50.00  0.84147  0.92653  -0.36186
    60.00  0.69047  1.13636  -0.40684
    70.00  0.48847  1.30122  -0.44540
    80.00  0.25000  1.39915  -0.47624
    90.00  0.00000  1.41600  -0.49744
   100.00  -0.17500  1.39915  -0.51780
   110.00  -0.34200  1.30122  -0.52216
   120.00  -0.48347  1.13636  -0.51338
   130.00  -0.58947  0.92653  -0.49751
   140.00  -0.65894  0.69890  -0.48398
   150.00  -0.70994  0.48277  -0.49060
   160.00  -0.79560  0.30535  -0.56646
   170.00  -0.39730  0.18915  -0.50000
   180.00  0.00000  0.14866  0.00000
EOT
