AeroDyn airfoil file.  Compatible with AeroDyn v13.0.
Interpolated thickness: 0.212

  1        Number of airfoil tables in this file
  9990     Reynolds number in millions.  For efficiency, make very large if only one table.
  0        Control setting
  8.7206   Stall angle (deg)
  -4.31059 Zero lift angle of attack (deg)
  6.35657  Cn slope for zero lift (dimensionless)
  1.44572  Cn at stall value for positive angle of attack
  -0.8     Cn at stall value for negative angle of attack
  -2.02    Angle of attack for minimum CD (deg)
  0.00902  Minimum CD value
  -180.00  0.00000  0.14294  0.00000
  -170.00  0.39680  0.18352  0.40000
  -160.00  0.79460  0.29998  -0.14096
  -150.00  0.70980  0.47782  -0.06256
  -140.00  0.65880  0.69452  -0.00702
  -130.00  0.58940  0.92286  0.04672
  -120.00  0.48340  1.13350  0.09966
  -110.00  0.34200  1.29926  0.14810
  -100.00  0.17500  1.39816  0.18710
   -90.00  0.00000  1.41600  0.21170
   -80.00  -0.17500  1.39816  0.23202
   -70.00  -0.34200  1.29926  0.23622
   -60.00  -0.48340  1.13350  0.22740
   -50.00  -0.58940  0.92286  0.21144
   -40.00  -0.65880  0.69452  0.19800
   -30.00  -0.70980  0.47782  0.20482
   -20.00  -0.79300  0.29974  0.28034
   -10.00  -0.29880  0.10548  0.09694
    -6.04  -0.12051  0.02864  -0.08872
    -5.04  -0.04518  0.01767  -0.11985
    -4.09  0.02507  0.00906  -0.14434
    -3.02  0.14411  0.00903  -0.14606
    -2.02  0.25407  0.00902  -0.14722
    -1.03  0.36404  0.00906  -0.14839
    -0.03  0.47476  0.00920  -0.14936
     1.09  0.60057  0.00942  -0.15003
     2.18  0.72121  0.00969  -0.15084
     3.27  0.84109  0.01006  -0.15149
     4.37  0.95582  0.01039  -0.15072
     5.46  1.06692  0.01091  -0.14927
     6.55  1.16360  0.01150  -0.14528
     8.72  1.26170  0.01813  -0.12667
    10.89  1.24434  0.05220  -0.11248
    13.07  1.27316  0.09142  -0.11091
    15.24  1.27667  0.13365  -0.11107
    17.41  1.21547  0.21339  -0.12380
    19.58  1.17802  0.27918  -0.13668
    21.76  1.12110  0.33128  -0.16317
    23.93  1.09282  0.36998  -0.18525
    26.10  1.06453  0.40868  -0.20733
    28.27  1.03625  0.44737  -0.22941
    30.45  1.01203  0.48888  -0.24846
    32.62  0.99468  0.53490  -0.26287
    34.79  0.97894  0.58194  -0.27627
    36.96  0.96321  0.62898  -0.28967
    39.14  0.94747  0.67602  -0.30306
    41.31  0.92817  0.72462  -0.31507
    43.48  0.90648  0.77418  -0.32618
    45.65  0.88479  0.82374  -0.33729
    47.83  0.86309  0.87330  -0.34841
    50.00  0.84140  0.92286  -0.35952
    60.00  0.69040  1.13350  -0.40470
    70.00  0.48840  1.29926  -0.44352
    80.00  0.25000  1.39816  -0.47470
    90.00  0.00000  1.41600  -0.49630
   100.00  -0.17500  1.39816  -0.51656
   110.00  -0.34200  1.29926  -0.52082
   120.00  -0.48340  1.13350  -0.51194
   130.00  -0.58940  0.92286  -0.49604
   140.00  -0.65880  0.69452  -0.48254
   150.00  -0.70980  0.47782  -0.48936
   160.00  -0.79460  0.29998  -0.56548
   170.00  -0.39680  0.18352  -0.50000
   180.00  0.00000  0.14294  0.00000
EOT
