AeroDyn airfoil file.  Compatible with AeroDyn v13.0.
Interpolated thickness: 0.828

  1        Number of airfoil tables in this file
  9990     Reynolds number in millions.  For efficiency, make very large if only one table.
  0        Control setting
  10.6717  Stall angle (deg)
  -3.01166 Zero lift angle of attack (deg)
  1.74844  Cn slope for zero lift (dimensionless)
  0.41756  Cn at stall value for positive angle of attack
  -0.8     Cn at stall value for negative angle of attack
  -2.12    Angle of attack for minimum CD (deg)
  0.273166 Minimum CD value
  -180.00  0.00008  0.29589  -0.00008
  -170.00  0.08925  0.30519  0.09045
  -160.00  0.17864  0.33187  -0.03249
  -150.00  0.16054  0.37265  -0.01434
  -140.00  0.14899  0.42242  -0.00168
  -130.00  0.13338  0.47499  0.01056
  -120.00  0.10939  0.52370  0.02271
  -110.00  0.07748  0.56235  0.03398
  -100.00  0.03968  0.58596  0.04322
   -90.00  0.00008  0.59125  0.04928
   -80.00  -0.03953  0.58596  0.05376
   -70.00  -0.07732  0.56235  0.05458
   -60.00  -0.10923  0.52370  0.05247
   -50.00  -0.13322  0.47499  0.04881
   -40.00  -0.14884  0.42242  0.04582
   -30.00  -0.16038  0.37265  0.04761
   -20.00  -0.17803  0.33183  0.06499
   -10.00  -0.07280  0.29478  0.02869
    -4.17  -0.01622  0.27321  -0.03054
    -3.17  0.00958  0.27319  -0.03099
    -2.12  0.03629  0.27317  -0.03135
    -1.08  0.06322  0.27317  -0.03176
    -0.05  0.08992  0.27319  -0.03199
    -0.01  0.08999  0.27319  -0.03199
     1.15  0.12153  0.27324  -0.03228
     2.30  0.15125  0.27328  -0.03253
     3.45  0.18106  0.27335  -0.03270
     4.60  0.20993  0.27342  -0.03265
     5.75  0.23788  0.27350  -0.03245
     6.90  0.26438  0.27364  -0.03197
     8.05  0.28614  0.27380  -0.03063
    10.67  0.29603  0.27667  -0.02382
    13.29  0.25910  0.29670  -0.02201
    15.92  0.25020  0.30910  -0.02393
    18.54  0.25591  0.32145  -0.02693
    21.16  0.25449  0.33696  -0.03180
    23.78  0.24689  0.34764  -0.03800
    26.40  0.23930  0.35833  -0.04419
    29.02  0.23170  0.36901  -0.05038
    31.65  0.22630  0.38122  -0.05494
    34.27  0.22205  0.39422  -0.05865
    36.89  0.21779  0.40721  -0.06236
    39.51  0.21354  0.42021  -0.06607
    42.13  0.20796  0.43381  -0.06925
    44.76  0.20211  0.44754  -0.07233
    47.38  0.19626  0.46127  -0.07540
    50.00  0.19041  0.47499  -0.07847
    60.00  0.15624  0.52370  -0.08895
    70.00  0.11052  0.56235  -0.09807
    80.00  0.05666  0.58596  -0.10556
    90.00  0.00008  0.59125  -0.11095
   100.00  -0.03953  0.58596  -0.11541
   110.00  -0.07732  0.56235  -0.11625
   120.00  -0.10923  0.52370  -0.11412
   130.00  -0.13322  0.47499  -0.11047
   140.00  -0.14884  0.42242  -0.10746
   150.00  -0.16038  0.37265  -0.10925
   160.00  -0.17849  0.33187  -0.12681
   170.00  -0.08909  0.30519  -0.11324
   180.00  0.00008  0.29589  -0.00008
EOT
