AeroDyn airfoil file.  Compatible with AeroDyn v13.0.
Interpolated thickness: 0.945

  1        Number of airfoil tables in this file
  9990     Reynolds number in millions.  For efficiency, make very large if only one table.
  0        Control setting
  10.6399  Stall angle (deg)
  -2.1126  Zero lift angle of attack (deg)
  0.798979 Cn slope for zero lift (dimensionless)
  0.177832 Cn at stall value for positive angle of attack
  -0.8     Cn at stall value for negative angle of attack
  -2.12    Angle of attack for minimum CD (deg)
  0.325431 Minimum CD value
  -180.00  0.00009  0.33270  -0.00009
  -170.00  0.02861  0.33567  0.02885
  -160.00  0.05719  0.34420  -0.01046
  -150.00  0.05140  0.35724  -0.00465
  -140.00  0.04771  0.37316  -0.00061
  -130.00  0.04272  0.38997  0.00331
  -120.00  0.03505  0.40554  0.00719
  -110.00  0.02484  0.41790  0.01080
  -100.00  0.01276  0.42545  0.01375
   -90.00  0.00009  0.42714  0.01569
   -80.00  -0.01257  0.42545  0.01712
   -70.00  -0.02466  0.41790  0.01738
   -60.00  -0.03486  0.40554  0.01671
   -50.00  -0.04253  0.38997  0.01554
   -40.00  -0.04753  0.37316  0.01458
   -30.00  -0.05122  0.35724  0.01516
   -20.00  -0.05686  0.34419  0.02071
   -10.00  -0.02321  0.33234  0.00911
    -4.17  -0.00512  0.32545  -0.00983
    -3.17  0.00313  0.32544  -0.00998
    -2.12  0.01167  0.32543  -0.01009
    -1.08  0.02028  0.32543  -0.01022
    -0.05  0.02882  0.32544  -0.01030
    -0.00  0.02884  0.32544  -0.01030
     1.15  0.03893  0.32545  -0.01039
     2.29  0.04843  0.32547  -0.01047
     3.44  0.05796  0.32549  -0.01052
     4.58  0.06720  0.32551  -0.01051
     5.73  0.07613  0.32554  -0.01045
     6.87  0.08461  0.32558  -0.01029
     8.02  0.09157  0.32563  -0.00986
    10.64  0.09473  0.32655  -0.00769
    13.26  0.08292  0.33296  -0.00711
    15.89  0.08008  0.33692  -0.00772
    18.51  0.08190  0.34087  -0.00868
    21.14  0.08145  0.34583  -0.01024
    23.76  0.07902  0.34925  -0.01222
    26.38  0.07659  0.35266  -0.01420
    29.01  0.07416  0.35608  -0.01618
    31.63  0.07243  0.35998  -0.01764
    34.26  0.07107  0.36414  -0.01882
    36.88  0.06971  0.36829  -0.02001
    39.50  0.06835  0.37245  -0.02120
    42.13  0.06657  0.37680  -0.02221
    44.75  0.06470  0.38119  -0.02320
    47.38  0.06283  0.38558  -0.02418
    50.00  0.06095  0.38997  -0.02516
    60.00  0.05003  0.40554  -0.02851
    70.00  0.03541  0.41790  -0.03143
    80.00  0.01818  0.42545  -0.03382
    90.00  0.00009  0.42714  -0.03555
   100.00  -0.01257  0.42545  -0.03697
   110.00  -0.02466  0.41790  -0.03724
   120.00  -0.03486  0.40554  -0.03656
   130.00  -0.04253  0.38997  -0.03539
   140.00  -0.04753  0.37316  -0.03443
   150.00  -0.05122  0.35724  -0.03500
   160.00  -0.05701  0.34420  -0.04062
   170.00  -0.02842  0.33567  -0.03628
   180.00  0.00009  0.33270  -0.00009
EOT
