AeroDyn airfoil file.  Compatible with AeroDyn v13.0.
Interpolated thickness: 0.446

  1        Number of airfoil tables in this file
  9990     Reynolds number in millions.  For efficiency, make very large if only one table.
  0        Control setting
  10.7753  Stall angle (deg)
  -3.47489 Zero lift angle of attack (deg)
  4.83888  Cn slope for zero lift (dimensionless)
  1.2035   Cn at stall value for positive angle of attack
  -0.8     Cn at stall value for negative angle of attack
  -2.12    Angle of attack for minimum CD (deg)
  0.102522 Minimum CD value
  -180.00  0.00003  0.17571  -0.00003
  -170.00  0.28723  0.20567  0.29155
  -160.00  0.57517  0.29161  -0.10441
  -150.00  0.51685  0.42297  -0.04595
  -140.00  0.47967  0.58326  -0.00520
  -130.00  0.42938  0.75260  0.03423
  -120.00  0.35211  0.90947  0.07338
  -110.00  0.24933  1.03397  0.10968
  -100.00  0.12759  1.11000  0.13942
   -90.00  0.00003  1.12706  0.15896
   -80.00  -0.12754  1.11000  0.17339
   -70.00  -0.24927  1.03397  0.17601
   -60.00  -0.35205  0.90947  0.16923
   -50.00  -0.42932  0.75260  0.15743
   -40.00  -0.47962  0.58326  0.14780
   -30.00  -0.51680  0.42297  0.15356
   -20.00  -0.57365  0.29147  0.20955
   -10.00  -0.23469  0.17214  0.09262
    -4.17  -0.05246  0.10267  -0.09814
    -3.17  0.03064  0.10260  -0.09960
    -2.12  0.11666  0.10252  -0.10077
    -1.08  0.20340  0.10252  -0.10208
    -0.05  0.28942  0.10260  -0.10281
    -0.03  0.28962  0.10260  -0.10281
     1.17  0.39123  0.10275  -0.10375
     2.33  0.48694  0.10288  -0.10455
     3.50  0.58295  0.10313  -0.10509
     4.66  0.67594  0.10334  -0.10496
     5.83  0.76597  0.10361  -0.10430
     6.99  0.85133  0.10406  -0.10274
     8.16  0.92142  0.10456  -0.09843
    10.78  0.95327  0.11380  -0.07651
    13.39  0.83433  0.17832  -0.07066
    16.01  0.80567  0.21826  -0.07687
    18.62  0.82405  0.25804  -0.08651
    21.24  0.81948  0.30798  -0.10221
    23.85  0.79501  0.34240  -0.12216
    26.47  0.77054  0.37682  -0.14211
    29.08  0.74606  0.41124  -0.16205
    31.70  0.72869  0.45056  -0.17673
    34.31  0.71498  0.49242  -0.18868
    36.93  0.70128  0.53427  -0.20064
    39.54  0.68757  0.57613  -0.21259
    42.16  0.66960  0.61995  -0.22284
    44.77  0.65076  0.66416  -0.23274
    47.39  0.63192  0.70838  -0.24264
    50.00  0.61307  0.75260  -0.25253
    60.00  0.50300  0.90947  -0.28628
    70.00  0.35575  1.03397  -0.31566
    80.00  0.18226  1.11000  -0.33979
    90.00  0.00003  1.12706  -0.35714
   100.00  -0.12754  1.11000  -0.37150
   110.00  -0.24927  1.03397  -0.37420
   120.00  -0.35205  0.90947  -0.36734
   130.00  -0.42932  0.75260  -0.35561
   140.00  -0.47962  0.58326  -0.34591
   150.00  -0.51680  0.42297  -0.35167
   160.00  -0.57511  0.29161  -0.40824
   170.00  -0.28718  0.20567  -0.36450
   180.00  0.00003  0.17571  -0.00003
EOT
