AeroDyn airfoil file.  Compatible with AeroDyn v13.0.
Interpolated thickness: 0.628

  1        Number of airfoil tables in this file
  9990     Reynolds number in millions.  For efficiency, make very large if only one table.
  0        Control setting
  10.726   Stall angle (deg)
  -3.31975 Zero lift angle of attack (deg)
  3.39413  Cn slope for zero lift (dimensionless)
  0.83205  Cn at stall value for positive angle of attack
  -0.8     Cn at stall value for negative angle of attack
  -2.12    Angle of attack for minimum CD (deg)
  0.183824 Minimum CD value
  -180.00  0.00005  0.23297  -0.00005
  -170.00  0.19290  0.25308  0.19574
  -160.00  0.38625  0.31079  -0.07014
  -150.00  0.34709  0.39900  -0.03089
  -140.00  0.32212  0.50663  -0.00353
  -130.00  0.28835  0.62034  0.02295
  -120.00  0.23647  0.72567  0.04924
  -110.00  0.16745  0.80927  0.07361
  -100.00  0.08571  0.86033  0.09359
   -90.00  0.00005  0.87178  0.10670
   -80.00  -0.08561  0.86033  0.11639
   -70.00  -0.16735  0.80927  0.11816
   -60.00  -0.23636  0.72567  0.11360
   -50.00  -0.28825  0.62034  0.10568
   -40.00  -0.32202  0.50663  0.09921
   -30.00  -0.34699  0.39900  0.10308
   -20.00  -0.38516  0.31070  0.14067
   -10.00  -0.15756  0.23057  0.06216
    -4.17  -0.03519  0.18392  -0.06593
    -3.17  0.02061  0.18387  -0.06691
    -2.12  0.07837  0.18382  -0.06770
    -1.08  0.13661  0.18382  -0.06858
    -0.05  0.19437  0.18387  -0.06907
    -0.02  0.19451  0.18387  -0.06907
     1.16  0.26274  0.18398  -0.06970
     2.32  0.32700  0.18407  -0.07023
     3.47  0.39147  0.18423  -0.07060
     4.63  0.45392  0.18437  -0.07051
     5.79  0.51437  0.18455  -0.07007
     6.95  0.57168  0.18486  -0.06902
     8.11  0.61875  0.18519  -0.06613
    10.73  0.64013  0.19139  -0.05141
    13.34  0.56027  0.23472  -0.04748
    15.96  0.54102  0.26154  -0.05165
    18.58  0.55337  0.28825  -0.05812
    21.20  0.55030  0.32179  -0.06866
    23.82  0.53387  0.34490  -0.08206
    26.44  0.51743  0.36801  -0.09545
    29.05  0.50100  0.39112  -0.10885
    31.67  0.48933  0.41752  -0.11870
    34.29  0.48013  0.44563  -0.12673
    36.91  0.47093  0.47374  -0.13476
    39.53  0.46172  0.50184  -0.14278
    42.15  0.44966  0.53126  -0.14967
    44.76  0.43701  0.56095  -0.15631
    47.38  0.42435  0.59065  -0.16296
    50.00  0.41170  0.62034  -0.16960
    60.00  0.33779  0.72567  -0.19227
    70.00  0.23891  0.80927  -0.21199
    80.00  0.12242  0.86033  -0.22819
    90.00  0.00005  0.87178  -0.23984
   100.00  -0.08561  0.86033  -0.24949
   110.00  -0.16735  0.80927  -0.25130
   120.00  -0.23636  0.72567  -0.24670
   130.00  -0.28825  0.62034  -0.23882
   140.00  -0.32202  0.50663  -0.23231
   150.00  -0.34699  0.39900  -0.23617
   160.00  -0.38614  0.31079  -0.27416
   170.00  -0.19280  0.25308  -0.24479
   180.00  0.00005  0.23297  -0.00005
EOT
