AeroDyn airfoil file.  Compatible with AeroDyn v13.0.
Interpolated thickness: 0.919

  1        Number of airfoil tables in this file
  9990     Reynolds number in millions.  For efficiency, make very large if only one table.
  0        Control setting
  10.647   Stall angle (deg)
  -2.45667 Zero lift angle of attack (deg)
  1.01071  Cn slope for zero lift (dimensionless)
  0.231151 Cn at stall value for positive angle of attack
  -0.8     Cn at stall value for negative angle of attack
  -2.12    Angle of attack for minimum CD (deg)
  0.313816 Minimum CD value
  -180.00  0.00009  0.32452  -0.00009
  -170.00  0.04208  0.32890  0.04254
  -160.00  0.08418  0.34146  -0.01535
  -150.00  0.07565  0.36067  -0.00680
  -140.00  0.07022  0.38411  -0.00085
  -130.00  0.06286  0.40886  0.00492
  -120.00  0.05157  0.43180  0.01064
  -110.00  0.03654  0.45000  0.01595
  -100.00  0.01874  0.46112  0.02030
   -90.00  0.00009  0.46361  0.02316
   -80.00  -0.01856  0.46112  0.02527
   -70.00  -0.03636  0.45000  0.02565
   -60.00  -0.05139  0.43180  0.02466
   -50.00  -0.06269  0.40886  0.02293
   -40.00  -0.07004  0.38411  0.02152
   -30.00  -0.07548  0.36067  0.02237
   -20.00  -0.08379  0.34144  0.03055
   -10.00  -0.03423  0.32399  0.01346
    -4.17  -0.00758  0.31384  -0.01443
    -3.17  0.00457  0.31383  -0.01465
    -2.12  0.01714  0.31382  -0.01482
    -1.08  0.02982  0.31382  -0.01501
    -0.05  0.04240  0.31383  -0.01512
    -0.01  0.04243  0.31383  -0.01512
     1.15  0.05729  0.31385  -0.01525
     2.29  0.07128  0.31387  -0.01537
     3.44  0.08532  0.31391  -0.01545
     4.58  0.09891  0.31394  -0.01543
     5.73  0.11208  0.31398  -0.01534
     6.88  0.12456  0.31404  -0.01511
     8.02  0.13481  0.31411  -0.01448
    10.65  0.13946  0.31547  -0.01127
    13.27  0.12207  0.32490  -0.01042
    15.89  0.11788  0.33074  -0.01132
    18.52  0.12057  0.33656  -0.01273
    21.14  0.11990  0.34386  -0.01503
    23.76  0.11632  0.34889  -0.01795
    26.39  0.11275  0.35392  -0.02086
    29.01  0.10917  0.35895  -0.02378
    31.64  0.10663  0.36470  -0.02593
    34.26  0.10462  0.37082  -0.02767
    36.88  0.10262  0.37694  -0.02942
    39.51  0.10062  0.38306  -0.03117
    42.13  0.09799  0.38947  -0.03267
    44.75  0.09523  0.39593  -0.03411
    47.38  0.09248  0.40240  -0.03556
    50.00  0.08972  0.40886  -0.03701
    60.00  0.07363  0.43180  -0.04194
    70.00  0.05210  0.45000  -0.04624
    80.00  0.02673  0.46112  -0.04977
    90.00  0.00009  0.46361  -0.05230
   100.00  -0.01856  0.46112  -0.05440
   110.00  -0.03636  0.45000  -0.05480
   120.00  -0.05139  0.43180  -0.05379
   130.00  -0.06269  0.40886  -0.05208
   140.00  -0.07004  0.38411  -0.05066
   150.00  -0.07548  0.36067  -0.05150
   160.00  -0.08400  0.34146  -0.05977
   170.00  -0.04190  0.32890  -0.05338
   180.00  0.00009  0.32452  -0.00009
EOT
