AeroDyn airfoil file.  Compatible with AeroDyn v13.0.
Interpolated thickness: 0.526

  1        Number of airfoil tables in this file
  9990     Reynolds number in millions.  For efficiency, make very large if only one table.
  0        Control setting
  10.7536  Stall angle (deg)
  -3.41626 Zero lift angle of attack (deg)
  4.20736  Cn slope for zero lift (dimensionless)
  1.04053  Cn at stall value for positive angle of attack
  -0.8     Cn at stall value for negative angle of attack
  -2.12    Angle of attack for minimum CD (deg)
  0.138259 Minimum CD value
  -180.00  0.00004  0.20088  -0.00004
  -170.00  0.24577  0.22651  0.24944
  -160.00  0.49212  0.30004  -0.08935
  -150.00  0.44223  0.41243  -0.03933
  -140.00  0.41042  0.54958  -0.00447
  -130.00  0.36739  0.69446  0.02928
  -120.00  0.30128  0.82868  0.06277
  -110.00  0.21334  0.93520  0.09383
  -100.00  0.10918  1.00025  0.11927
   -90.00  0.00004  1.01485  0.13599
   -80.00  -0.10911  1.00025  0.14834
   -70.00  -0.21326  0.93520  0.15058
   -60.00  -0.30120  0.82868  0.14478
   -50.00  -0.36731  0.69446  0.13468
   -40.00  -0.41035  0.54958  0.12645
   -30.00  -0.44215  0.41243  0.13137
   -20.00  -0.49080  0.29992  0.17927
   -10.00  -0.20079  0.19782  0.07923
    -4.17  -0.04487  0.13838  -0.08399
    -3.17  0.02623  0.13832  -0.08523
    -2.12  0.09983  0.13826  -0.08623
    -1.08  0.17405  0.13826  -0.08735
    -0.05  0.24764  0.13832  -0.08798
    -0.03  0.24781  0.13832  -0.08798
     1.16  0.33475  0.13846  -0.08878
     2.32  0.41664  0.13857  -0.08946
     3.49  0.49878  0.13878  -0.08993
     4.65  0.57835  0.13896  -0.08981
     5.81  0.65538  0.13919  -0.08926
     6.97  0.72841  0.13958  -0.08792
     8.14  0.78837  0.14001  -0.08424
    10.75  0.81563  0.14791  -0.06547
    13.37  0.71387  0.20311  -0.06047
    15.99  0.68934  0.23728  -0.06578
    18.60  0.70507  0.27132  -0.07403
    21.22  0.70116  0.31405  -0.08746
    23.84  0.68022  0.34350  -0.10453
    26.45  0.65928  0.37295  -0.12160
    29.07  0.63834  0.40239  -0.13867
    31.69  0.62348  0.43604  -0.15122
    34.30  0.61175  0.47185  -0.16145
    36.92  0.60002  0.50766  -0.17168
    39.53  0.58830  0.54348  -0.18191
    42.15  0.57293  0.58096  -0.19068
    44.77  0.55680  0.61880  -0.19914
    47.38  0.54068  0.65663  -0.20761
    50.00  0.52456  0.69446  -0.21608
    60.00  0.43038  0.82868  -0.24496
    70.00  0.30440  0.93520  -0.27009
    80.00  0.15596  1.00025  -0.29074
    90.00  0.00004  1.01485  -0.30558
   100.00  -0.10911  1.00025  -0.31787
   110.00  -0.21326  0.93520  -0.32017
   120.00  -0.30120  0.82868  -0.31431
   130.00  -0.36731  0.69446  -0.30427
   140.00  -0.41035  0.54958  -0.29598
   150.00  -0.44215  0.41243  -0.30090
   160.00  -0.49205  0.30004  -0.34930
   170.00  -0.24569  0.22651  -0.31188
   180.00  0.00004  0.20088  -0.00004
EOT
