AeroDyn airfoil file.  Compatible with AeroDyn v13.0.
Interpolated thickness: 0.517

  1        Number of airfoil tables in this file
  9990     Reynolds number in millions.  For efficiency, make very large if only one table.
  0        Control setting
  10.7561  Stall angle (deg)
  -3.42345 Zero lift angle of attack (deg)
  4.27868  Cn slope for zero lift (dimensionless)
  1.05889  Cn at stall value for positive angle of attack
  -0.8     Cn at stall value for negative angle of attack
  -2.12    Angle of attack for minimum CD (deg)
  0.134239 Minimum CD value
  -180.00  0.00004  0.19805  -0.00004
  -170.00  0.25043  0.22417  0.25417
  -160.00  0.50147  0.29909  -0.09104
  -150.00  0.45062  0.41362  -0.04007
  -140.00  0.41821  0.55337  -0.00455
  -130.00  0.37436  0.70100  0.02983
  -120.00  0.30700  0.83777  0.06396
  -110.00  0.21739  0.94631  0.09561
  -100.00  0.11125  1.01260  0.12154
   -90.00  0.00004  1.02747  0.13857
   -80.00  -0.11118  1.01260  0.15116
   -70.00  -0.21731  0.94631  0.15344
   -60.00  -0.30692  0.83777  0.14753
   -50.00  -0.37429  0.70100  0.13724
   -40.00  -0.41814  0.55337  0.12885
   -30.00  -0.45055  0.41362  0.13387
   -20.00  -0.50012  0.29897  0.18268
   -10.00  -0.20460  0.19493  0.08074
    -4.17  -0.04572  0.13437  -0.08558
    -3.17  0.02673  0.13430  -0.08685
    -2.12  0.10172  0.13424  -0.08787
    -1.08  0.17735  0.13424  -0.08901
    -0.05  0.25234  0.13430  -0.08965
    -0.03  0.25251  0.13430  -0.08965
     1.16  0.34110  0.13444  -0.09046
     2.33  0.42455  0.13455  -0.09116
     3.49  0.50825  0.13477  -0.09164
     4.65  0.58933  0.13495  -0.09152
     5.81  0.66782  0.13519  -0.09095
     6.98  0.74224  0.13558  -0.08959
     8.14  0.80334  0.13602  -0.08583
    10.76  0.83111  0.14407  -0.06671
    13.37  0.72742  0.20032  -0.06162
    15.99  0.70243  0.23514  -0.06703
    18.60  0.71846  0.26983  -0.07543
    21.22  0.71447  0.31337  -0.08912
    23.84  0.69313  0.34338  -0.10651
    26.45  0.67180  0.37338  -0.12391
    29.07  0.65046  0.40339  -0.14130
    31.69  0.63531  0.43767  -0.15409
    34.30  0.62336  0.47416  -0.16452
    36.92  0.61142  0.51066  -0.17494
    39.53  0.59947  0.54715  -0.18536
    42.15  0.58380  0.58535  -0.19429
    44.77  0.56737  0.62390  -0.20292
    47.38  0.55094  0.66245  -0.21155
    50.00  0.53451  0.70100  -0.22018
    60.00  0.43855  0.83777  -0.24961
    70.00  0.31017  0.94631  -0.27522
    80.00  0.15892  1.01260  -0.29626
    90.00  0.00004  1.02747  -0.31138
   100.00  -0.11118  1.01260  -0.32390
   110.00  -0.21731  0.94631  -0.32625
   120.00  -0.30692  0.83777  -0.32028
   130.00  -0.37429  0.70100  -0.31005
   140.00  -0.41814  0.55337  -0.30159
   150.00  -0.45055  0.41362  -0.30661
   160.00  -0.50139  0.29909  -0.35593
   170.00  -0.25036  0.22417  -0.31780
   180.00  0.00004  0.19805  -0.00004
EOT
