AeroDyn airfoil file.  Compatible with AeroDyn v13.0.
Interpolated thickness: 0.296

  1        Number of airfoil tables in this file
  9990     Reynolds number in millions.  For efficiency, make very large if only one table.
  0        Control setting
  10.8161  Stall angle (deg)
  -3.56241 Zero lift angle of attack (deg)
  6.00829  Cn slope for zero lift (dimensionless)
  1.50779  Cn at stall value for positive angle of attack
  -0.8     Cn at stall value for negative angle of attack
  -2.12    Angle of attack for minimum CD (deg)
  0.0355158 Minimum CD value
  -180.00  0.00001  0.12852  -0.00001
  -170.00  0.36498  0.16659  0.37052
  -160.00  0.73087  0.27580  -0.13266
  -150.00  0.65677  0.44272  -0.05837
  -140.00  0.60952  0.64642  -0.00658
  -130.00  0.54561  0.86160  0.04353
  -120.00  0.44742  1.06095  0.09327
  -110.00  0.31681  1.21916  0.13940
  -100.00  0.16211  1.31578  0.17720
   -90.00  0.00001  1.33745  0.20202
   -80.00  -0.16210  1.31578  0.22036
   -70.00  -0.31679  1.21916  0.22370
   -60.00  -0.44740  1.06095  0.21508
   -50.00  -0.54559  0.86160  0.20008
   -40.00  -0.60951  0.64642  0.18785
   -30.00  -0.65675  0.44272  0.19517
   -20.00  -0.72900  0.27562  0.26631
   -10.00  -0.29827  0.12398  0.11773
    -4.17  -0.06669  0.03570  -0.12469
    -3.17  0.03891  0.03561  -0.12654
    -2.12  0.14822  0.03552  -0.12802
    -1.08  0.25845  0.03552  -0.12969
    -0.05  0.36775  0.03561  -0.13062
    -0.04  0.36801  0.03561  -0.13062
     1.17  0.49713  0.03581  -0.13181
     2.34  0.61875  0.03597  -0.13283
     3.52  0.74076  0.03629  -0.13352
     4.69  0.85893  0.03655  -0.13335
     5.86  0.97334  0.03690  -0.13252
     7.03  1.08181  0.03748  -0.13053
     8.20  1.17087  0.03811  -0.12506
    10.82  1.21135  0.04984  -0.09719
    13.43  1.06021  0.13183  -0.08977
    16.04  1.02378  0.18259  -0.09765
    18.65  1.04715  0.23315  -0.10990
    21.27  1.04134  0.29661  -0.12986
    23.88  1.01024  0.34034  -0.15521
    26.49  0.97914  0.38408  -0.18055
    29.10  0.94804  0.42782  -0.20590
    31.71  0.92596  0.47779  -0.22456
    34.33  0.90854  0.53098  -0.23975
    36.94  0.89113  0.58417  -0.25494
    39.55  0.87371  0.63736  -0.27013
    42.16  0.85088  0.69304  -0.28315
    44.78  0.82693  0.74922  -0.29573
    47.39  0.80299  0.80541  -0.30831
    50.00  0.77904  0.86160  -0.32088
    60.00  0.63917  1.06095  -0.36377
    70.00  0.45205  1.21916  -0.40110
    80.00  0.23159  1.31578  -0.43176
    90.00  0.00001  1.33745  -0.45381
   100.00  -0.16210  1.31578  -0.47206
   110.00  -0.31679  1.21916  -0.47549
   120.00  -0.44740  1.06095  -0.46678
   130.00  -0.54559  0.86160  -0.45186
   140.00  -0.60951  0.64642  -0.43954
   150.00  -0.65675  0.44272  -0.44686
   160.00  -0.73086  0.27580  -0.51874
   170.00  -0.36496  0.16659  -0.46317
   180.00  0.00001  0.12852  -0.00001
EOT
