AeroDyn airfoil file.  Compatible with AeroDyn v13.0.
Interpolated thickness: 0.692

  1        Number of airfoil tables in this file
  9990     Reynolds number in millions.  For efficiency, make very large if only one table.
  0        Control setting
  10.7086  Stall angle (deg)
  -3.23798 Zero lift angle of attack (deg)
  2.87921  Cn slope for zero lift (dimensionless)
  0.700838 Cn at stall value for positive angle of attack
  -0.8     Cn at stall value for negative angle of attack
  -2.12    Angle of attack for minimum CD (deg)
  0.212413 Minimum CD value
  -180.00  0.00006  0.25310  -0.00006
  -170.00  0.15973  0.26976  0.16205
  -160.00  0.31981  0.31754  -0.05809
  -150.00  0.28739  0.39057  -0.02559
  -140.00  0.26672  0.47968  -0.00294
  -130.00  0.23876  0.57383  0.01899
  -120.00  0.19580  0.66104  0.04075
  -110.00  0.13866  0.73026  0.06093
  -100.00  0.07098  0.77253  0.07747
   -90.00  0.00006  0.78201  0.08833
   -80.00  -0.07086  0.77253  0.09635
   -70.00  -0.13854  0.73026  0.09781
   -60.00  -0.19568  0.66104  0.09404
   -50.00  -0.23864  0.57383  0.08748
   -40.00  -0.26660  0.47968  0.08213
   -30.00  -0.28727  0.39057  0.08533
   -20.00  -0.31888  0.31746  0.11645
   -10.00  -0.13044  0.25112  0.05145
    -4.17  -0.02912  0.21249  -0.05461
    -3.17  0.01708  0.21245  -0.05542
    -2.12  0.06490  0.21241  -0.05607
    -1.08  0.11313  0.21241  -0.05680
    -0.05  0.16095  0.21245  -0.05720
    -0.02  0.16106  0.21245  -0.05720
     1.16  0.21755  0.21254  -0.05772
     2.31  0.27076  0.21261  -0.05817
     3.47  0.32414  0.21275  -0.05847
     4.62  0.37584  0.21287  -0.05840
     5.78  0.42589  0.21302  -0.05803
     6.93  0.47335  0.21327  -0.05716
     8.09  0.51231  0.21355  -0.05477
    10.71  0.53002  0.21868  -0.04258
    13.33  0.46390  0.25455  -0.03933
    15.95  0.44796  0.27676  -0.04278
    18.57  0.45818  0.29888  -0.04814
    21.19  0.45564  0.32664  -0.05687
    23.81  0.44204  0.34578  -0.06796
    26.43  0.42843  0.36491  -0.07905
    29.04  0.41482  0.38405  -0.09014
    31.66  0.40516  0.40591  -0.09830
    34.28  0.39754  0.42918  -0.10494
    36.90  0.38992  0.45245  -0.11159
    39.52  0.38231  0.47572  -0.11824
    42.14  0.37232  0.50008  -0.12393
    44.76  0.36184  0.52466  -0.12944
    47.38  0.35136  0.54924  -0.13494
    50.00  0.34089  0.57383  -0.14044
    60.00  0.27969  0.66104  -0.15921
    70.00  0.19783  0.73026  -0.17554
    80.00  0.10138  0.77253  -0.18895
    90.00  0.00006  0.78201  -0.19860
   100.00  -0.07086  0.77253  -0.20658
   110.00  -0.13854  0.73026  -0.20808
   120.00  -0.19568  0.66104  -0.20427
   130.00  -0.23864  0.57383  -0.19775
   140.00  -0.26660  0.47968  -0.19236
   150.00  -0.28727  0.39057  -0.19556
   160.00  -0.31969  0.31754  -0.22701
   170.00  -0.15961  0.26976  -0.20269
   180.00  0.00006  0.25310  -0.00006
EOT
