AeroDyn airfoil file.  Compatible with AeroDyn v13.0.
Interpolated thickness: 0.868

  1        Number of airfoil tables in this file
  9990     Reynolds number in millions.  For efficiency, make very large if only one table.
  0        Control setting
  10.6608  Stall angle (deg)
  -2.83726 Zero lift angle of attack (deg)
  1.42479  Cn slope for zero lift (dimensionless)
  0.335661 Cn at stall value for positive angle of attack
  -0.8     Cn at stall value for negative angle of attack
  -2.12    Angle of attack for minimum CD (deg)
  0.291034 Minimum CD value
  -180.00  0.00008  0.30847  -0.00008
  -170.00  0.06851  0.31561  0.06939
  -160.00  0.13712  0.33609  -0.02495
  -150.00  0.12322  0.36739  -0.01102
  -140.00  0.11437  0.40558  -0.00132
  -130.00  0.10238  0.44593  0.00808
  -120.00  0.08397  0.48330  0.01741
  -110.00  0.05948  0.51297  0.02606
  -100.00  0.03048  0.53108  0.03314
   -90.00  0.00008  0.53515  0.03780
   -80.00  -0.03031  0.53108  0.04124
   -70.00  -0.05932  0.51297  0.04186
   -60.00  -0.08381  0.48330  0.04025
   -50.00  -0.10222  0.44593  0.03743
   -40.00  -0.11420  0.40558  0.03514
   -30.00  -0.12306  0.36739  0.03651
   -20.00  -0.13661  0.33605  0.04985
   -10.00  -0.05584  0.30762  0.02199
    -4.17  -0.01242  0.29107  -0.02346
    -3.17  0.00738  0.29105  -0.02381
    -2.12  0.02787  0.29103  -0.02409
    -1.08  0.04854  0.29103  -0.02440
    -0.05  0.06904  0.29105  -0.02457
    -0.01  0.06908  0.29105  -0.02457
     1.15  0.09329  0.29109  -0.02480
     2.30  0.11610  0.29112  -0.02499
     3.44  0.13897  0.29118  -0.02512
     4.59  0.16113  0.29123  -0.02508
     5.74  0.18258  0.29129  -0.02493
     6.89  0.20292  0.29140  -0.02456
     8.04  0.21962  0.29152  -0.02353
    10.66  0.22721  0.29372  -0.01831
    13.28  0.19887  0.30909  -0.01691
    15.91  0.19204  0.31861  -0.01839
    18.53  0.19642  0.32809  -0.02069
    21.15  0.19533  0.33999  -0.02443
    23.77  0.18950  0.34819  -0.02918
    26.40  0.18367  0.35639  -0.03394
    29.02  0.17784  0.36459  -0.03869
    31.64  0.17370  0.37396  -0.04219
    34.26  0.17043  0.38393  -0.04503
    36.89  0.16717  0.39391  -0.04788
    39.51  0.16390  0.40388  -0.05073
    42.13  0.15962  0.41432  -0.05317
    44.75  0.15513  0.42485  -0.05553
    47.38  0.15064  0.43539  -0.05789
    50.00  0.14615  0.44593  -0.06025
    60.00  0.11992  0.48330  -0.06829
    70.00  0.08484  0.51297  -0.07529
    80.00  0.04350  0.53108  -0.08104
    90.00  0.00008  0.53515  -0.08517
   100.00  -0.03031  0.53108  -0.08859
   110.00  -0.05932  0.51297  -0.08923
   120.00  -0.08381  0.48330  -0.08760
   130.00  -0.10222  0.44593  -0.08481
   140.00  -0.11420  0.40558  -0.08250
   150.00  -0.12306  0.36739  -0.08387
   160.00  -0.13695  0.33609  -0.09735
   170.00  -0.06835  0.31561  -0.08692
   180.00  0.00008  0.30847  -0.00008
EOT
