AeroDyn airfoil file.  Compatible with AeroDyn v13.0.
Interpolated thickness: 0.774

  1        Number of airfoil tables in this file
  9990     Reynolds number in millions.  For efficiency, make very large if only one table.
  0        Control setting
  10.6863  Stall angle (deg)
  -3.08712 Zero lift angle of attack (deg)
  2.21416  Cn slope for zero lift (dimensionless)
  0.532267 Cn at stall value for positive angle of attack
  -0.8     Cn at stall value for negative angle of attack
  -2.12    Angle of attack for minimum CD (deg)
  0.249043 Minimum CD value
  -180.00  0.00007  0.27890  -0.00007
  -170.00  0.11723  0.29112  0.11888
  -160.00  0.23469  0.32618  -0.04265
  -150.00  0.21090  0.37977  -0.01880
  -140.00  0.19574  0.44516  -0.00218
  -130.00  0.17522  0.51424  0.01391
  -120.00  0.14370  0.57823  0.02987
  -110.00  0.10177  0.62902  0.04468
  -100.00  0.05211  0.66004  0.05682
   -90.00  0.00007  0.66699  0.06479
   -80.00  -0.05197  0.66004  0.07067
   -70.00  -0.10163  0.62902  0.07174
   -60.00  -0.14356  0.57823  0.06898
   -50.00  -0.17508  0.51424  0.06416
   -40.00  -0.19560  0.44516  0.06024
   -30.00  -0.21076  0.37977  0.06259
   -20.00  -0.23396  0.32612  0.08542
   -10.00  -0.09568  0.27744  0.03773
    -4.17  -0.02134  0.24910  -0.04010
    -3.17  0.01256  0.24907  -0.04069
    -2.12  0.04765  0.24904  -0.04117
    -1.08  0.08304  0.24904  -0.04170
    -0.05  0.11813  0.24907  -0.04200
    -0.01  0.11821  0.24907  -0.04200
     1.15  0.15966  0.24914  -0.04238
     2.30  0.19870  0.24919  -0.04271
     3.46  0.23787  0.24929  -0.04293
     4.61  0.27581  0.24938  -0.04288
     5.76  0.31253  0.24949  -0.04261
     6.91  0.34735  0.24967  -0.04197
     8.07  0.37594  0.24988  -0.04021
    10.69  0.38894  0.25364  -0.03127
    13.31  0.34042  0.27996  -0.02889
    15.93  0.32872  0.29626  -0.03142
    18.55  0.33623  0.31249  -0.03535
    21.17  0.33436  0.33286  -0.04175
    23.79  0.32438  0.34690  -0.04989
    26.41  0.31439  0.36094  -0.05803
    29.03  0.30441  0.37498  -0.06617
    31.65  0.29732  0.39102  -0.07216
    34.27  0.29173  0.40810  -0.07703
    36.90  0.28614  0.42517  -0.08191
    39.52  0.28055  0.44225  -0.08678
    42.14  0.27322  0.46012  -0.09097
    44.76  0.26553  0.47816  -0.09500
    47.38  0.25784  0.49620  -0.09904
    50.00  0.25016  0.51424  -0.10308
    60.00  0.20525  0.57823  -0.11685
    70.00  0.14519  0.62902  -0.12883
    80.00  0.07441  0.66004  -0.13867
    90.00  0.00007  0.66699  -0.14575
   100.00  -0.05197  0.66004  -0.15161
   110.00  -0.10163  0.62902  -0.15271
   120.00  -0.14356  0.57823  -0.14991
   130.00  -0.17508  0.51424  -0.14513
   140.00  -0.19560  0.44516  -0.14117
   150.00  -0.21076  0.37977  -0.14352
   160.00  -0.23455  0.32618  -0.16660
   170.00  -0.11709  0.29112  -0.14875
   180.00  0.00007  0.27890  -0.00007
EOT
