AeroDyn airfoil file.  Compatible with AeroDyn v13.0.
Interpolated thickness: 0.204

  1        Number of airfoil tables in this file
  9990     Reynolds number in millions.  For efficiency, make very large if only one table.
  0        Control setting
  14.8562  Stall angle (deg)
  -4.53975 Zero lift angle of attack (deg)
  6.31174  Cn slope for zero lift (dimensionless)
  2.13667  Cn at stall value for positive angle of attack
  -0.8     Cn at stall value for negative angle of attack
  -3.02    Angle of attack for minimum CD (deg)
  0.00858735 Minimum CD value
  -180.00  0.00000  0.15209  0.00000
  -170.00  0.39760  0.19253  0.40000
  -160.00  0.79620  0.30857  -0.14032
  -150.00  0.71003  0.48574  -0.06243
  -140.00  0.65903  0.70153  -0.00700
  -130.00  0.58951  0.92873  0.04664
  -120.00  0.48351  1.13807  0.09936
  -110.00  0.34200  1.30239  0.14741
  -100.00  0.17500  1.39975  0.18590
   -90.00  0.00000  1.41600  0.20987
   -80.00  -0.17500  1.39975  0.23034
   -70.00  -0.34200  1.30239  0.23471
   -60.00  -0.48351  1.13807  0.22603
   -50.00  -0.58951  0.92873  0.21014
   -40.00  -0.65903  0.70153  0.19663
   -30.00  -0.71003  0.48574  0.20314
   -20.00  -0.79471  0.30832  0.27829
   -10.00  -0.29217  0.10533  0.08832
    -6.04  -0.11146  0.02503  -0.09959
    -5.04  -0.02686  0.01560  -0.12679
    -4.09  0.05020  0.00859  -0.14707
    -3.02  0.16847  0.00859  -0.14869
    -2.02  0.27767  0.00860  -0.14975
    -1.03  0.38670  0.00865  -0.15077
    -0.02  0.49690  0.00880  -0.15175
     1.01  0.61259  0.00902  -0.15219
     2.02  0.72384  0.00929  -0.15287
     3.04  0.83422  0.00965  -0.15355
     4.05  0.94042  0.00998  -0.15281
     5.06  1.04356  0.01046  -0.15153
     6.07  1.13491  0.01099  -0.14822
     8.27  1.24900  0.01706  -0.13134
    10.46  1.26510  0.04550  -0.11760
    12.66  1.31545  0.07852  -0.11416
    14.86  1.32734  0.11838  -0.11225
    17.05  1.23976  0.21040  -0.12527
    19.25  1.19149  0.27811  -0.13724
    21.45  1.12598  0.33431  -0.16505
    23.64  1.09729  0.37327  -0.18718
    25.84  1.06860  0.41223  -0.20931
    28.04  1.03991  0.45119  -0.23144
    30.23  1.01451  0.49243  -0.25113
    32.43  0.99649  0.53847  -0.26591
    34.62  0.98056  0.58582  -0.27938
    36.82  0.96463  0.63318  -0.29286
    39.02  0.94869  0.68054  -0.30633
    41.21  0.92944  0.72932  -0.31853
    43.41  0.90746  0.77917  -0.32971
    45.61  0.88548  0.82903  -0.34090
    47.80  0.86350  0.87888  -0.35208
    50.00  0.84151  0.92873  -0.36327
    60.00  0.69051  1.13807  -0.40813
    70.00  0.48851  1.30239  -0.44653
    80.00  0.25000  1.39975  -0.47716
    90.00  0.00000  1.41600  -0.49813
   100.00  -0.17500  1.39975  -0.51855
   110.00  -0.34200  1.30239  -0.52297
   120.00  -0.48351  1.13807  -0.51424
   130.00  -0.58951  0.92873  -0.49839
   140.00  -0.65903  0.70153  -0.48484
   150.00  -0.71003  0.48574  -0.49135
   160.00  -0.79620  0.30857  -0.56705
   170.00  -0.39760  0.19253  -0.50000
   180.00  0.00000  0.15209  0.00000
EOT
