AeroDyn airfoil file.  Compatible with AeroDyn v13.0.
Interpolated thickness: 0.849

  1        Number of airfoil tables in this file
  9990     Reynolds number in millions.  For efficiency, make very large if only one table.
  0        Control setting
  10.666   Stall angle (deg)
  -2.92878 Zero lift angle of attack (deg)
  1.57865  Cn slope for zero lift (dimensionless)
  0.374571 Cn at stall value for positive angle of attack
  -0.8     Cn at stall value for negative angle of attack
  -2.12    Angle of attack for minimum CD (deg)
  0.282547 Minimum CD value
  -180.00  0.00008  0.30249  -0.00008
  -170.00  0.07836  0.31066  0.07939
  -160.00  0.15684  0.33409  -0.02853
  -150.00  0.14095  0.36989  -0.01260
  -140.00  0.13081  0.41358  -0.00149
  -130.00  0.11711  0.45973  0.00926
  -120.00  0.09604  0.50249  0.01993
  -110.00  0.06803  0.53643  0.02982
  -100.00  0.03485  0.55715  0.03793
   -90.00  0.00008  0.56180  0.04325
   -80.00  -0.03469  0.55715  0.04719
   -70.00  -0.06787  0.53643  0.04790
   -60.00  -0.09588  0.50249  0.04605
   -50.00  -0.11694  0.45973  0.04284
   -40.00  -0.13065  0.41358  0.04021
   -30.00  -0.14079  0.36989  0.04178
   -20.00  -0.15628  0.33405  0.05704
   -10.00  -0.06390  0.30152  0.02517
    -4.17  -0.01423  0.28259  -0.02682
    -3.17  0.00842  0.28257  -0.02722
    -2.12  0.03187  0.28255  -0.02754
    -1.08  0.05551  0.28255  -0.02790
    -0.05  0.07896  0.28257  -0.02809
    -0.01  0.07901  0.28257  -0.02810
     1.15  0.10671  0.28261  -0.02835
     2.30  0.13279  0.28265  -0.02857
     3.45  0.15896  0.28271  -0.02872
     4.60  0.18431  0.28277  -0.02868
     5.75  0.20885  0.28284  -0.02850
     6.89  0.23211  0.28297  -0.02808
     8.04  0.25122  0.28310  -0.02690
    10.67  0.25990  0.28562  -0.02093
    13.29  0.22748  0.30321  -0.01933
    15.91  0.21967  0.31409  -0.02102
    18.53  0.22468  0.32494  -0.02365
    21.16  0.22343  0.33855  -0.02793
    23.78  0.21676  0.34793  -0.03337
    26.40  0.21009  0.35731  -0.03881
    29.02  0.20342  0.36669  -0.04424
    31.64  0.19869  0.37741  -0.04824
    34.27  0.19495  0.38882  -0.05150
    36.89  0.19122  0.40023  -0.05476
    39.51  0.18748  0.41163  -0.05802
    42.13  0.18258  0.42358  -0.06081
    44.76  0.17745  0.43563  -0.06351
    47.38  0.17231  0.44768  -0.06621
    50.00  0.16717  0.45973  -0.06890
    60.00  0.13717  0.50249  -0.07810
    70.00  0.09704  0.53643  -0.08611
    80.00  0.04975  0.55715  -0.09269
    90.00  0.00008  0.56180  -0.09742
   100.00  -0.03469  0.55715  -0.10133
   110.00  -0.06787  0.53643  -0.10206
   120.00  -0.09588  0.50249  -0.10020
   130.00  -0.11694  0.45973  -0.09700
   140.00  -0.13065  0.41358  -0.09436
   150.00  -0.14079  0.36989  -0.09593
   160.00  -0.15668  0.33409  -0.11134
   170.00  -0.07820  0.31066  -0.09942
   180.00  0.00008  0.30249  -0.00008
EOT
