AeroDyn airfoil file.  Compatible with AeroDyn v13.0.
Interpolated thickness: 0.668

  1        Number of airfoil tables in this file
  9990     Reynolds number in millions.  For efficiency, make very large if only one table.
  0        Control setting
  10.7151  Stall angle (deg)
  -3.27129 Zero lift angle of attack (deg)
  3.07273  Cn slope for zero lift (dimensionless)
  0.750079 Cn at stall value for positive angle of attack
  -0.8     Cn at stall value for negative angle of attack
  -2.12    Angle of attack for minimum CD (deg)
  0.201692 Minimum CD value
  -180.00  0.00006  0.24555  -0.00006
  -170.00  0.17217  0.26351  0.17468
  -160.00  0.34472  0.31501  -0.06261
  -150.00  0.30978  0.39373  -0.02758
  -140.00  0.28750  0.48979  -0.00316
  -130.00  0.25736  0.59127  0.02048
  -120.00  0.21105  0.68528  0.04393
  -110.00  0.14946  0.75989  0.06569
  -100.00  0.07650  0.80545  0.08351
   -90.00  0.00006  0.81567  0.09522
   -80.00  -0.07639  0.80545  0.10387
   -70.00  -0.14934  0.75989  0.10544
   -60.00  -0.21094  0.68528  0.10138
   -50.00  -0.25724  0.59127  0.09430
   -40.00  -0.28739  0.48979  0.08854
   -30.00  -0.30966  0.39373  0.09199
   -20.00  -0.34374  0.31492  0.12554
   -10.00  -0.14061  0.24341  0.05547
    -4.17  -0.03140  0.20178  -0.05886
    -3.17  0.01840  0.20174  -0.05973
    -2.12  0.06995  0.20169  -0.06043
    -1.08  0.12194  0.20169  -0.06121
    -0.05  0.17348  0.20174  -0.06165
    -0.02  0.17360  0.20174  -0.06165
     1.16  0.23450  0.20183  -0.06221
     2.31  0.29185  0.20191  -0.06269
     3.47  0.34939  0.20206  -0.06302
     4.63  0.40512  0.20218  -0.06294
     5.78  0.45907  0.20234  -0.06255
     6.94  0.51022  0.20262  -0.06161
     8.10  0.55222  0.20292  -0.05903
    10.72  0.57131  0.20845  -0.04589
    13.33  0.50004  0.24711  -0.04239
    15.95  0.48286  0.27105  -0.04610
    18.57  0.49388  0.29489  -0.05188
    21.19  0.49114  0.32482  -0.06129
    23.81  0.47647  0.34545  -0.07325
    26.43  0.46181  0.36607  -0.08520
    29.05  0.44714  0.38670  -0.09715
    31.67  0.43673  0.41026  -0.10595
    34.29  0.42851  0.43535  -0.11311
    36.91  0.42030  0.46043  -0.12028
    39.52  0.41209  0.48551  -0.12744
    42.14  0.40132  0.51177  -0.13358
    44.76  0.39003  0.53827  -0.13952
    47.38  0.37873  0.56477  -0.14545
    50.00  0.36744  0.59127  -0.15138
    60.00  0.30148  0.68528  -0.17160
    70.00  0.21324  0.75989  -0.18921
    80.00  0.10927  0.80545  -0.20367
    90.00  0.00006  0.81567  -0.21407
   100.00  -0.07639  0.80545  -0.22267
   110.00  -0.14934  0.75989  -0.22429
   120.00  -0.21094  0.68528  -0.22018
   130.00  -0.25724  0.59127  -0.21315
   140.00  -0.28739  0.48979  -0.20734
   150.00  -0.30966  0.39373  -0.21079
   160.00  -0.34461  0.31501  -0.24469
   170.00  -0.17206  0.26351  -0.21848
   180.00  0.00006  0.24555  -0.00006
EOT
