AeroDyn airfoil file.  Compatible with AeroDyn v13.0.
Interpolated thickness: 0.775

  1        Number of airfoil tables in this file
  9990     Reynolds number in millions.  For efficiency, make very large if only one table.
  0        Control setting
  10.6861  Stall angle (deg)
  -3.08478 Zero lift angle of attack (deg)
  2.20602  Cn slope for zero lift (dimensionless)
  0.530208 Cn at stall value for positive angle of attack
  -0.8     Cn at stall value for negative angle of attack
  -2.12    Angle of attack for minimum CD (deg)
  0.24949  Minimum CD value
  -180.00  0.00007  0.27921  -0.00007
  -170.00  0.11672  0.29138  0.11835
  -160.00  0.23366  0.32629  -0.04247
  -150.00  0.20997  0.37963  -0.01872
  -140.00  0.19487  0.44474  -0.00217
  -130.00  0.17445  0.51351  0.01384
  -120.00  0.14306  0.57722  0.02974
  -110.00  0.10132  0.62779  0.04449
  -100.00  0.05188  0.65866  0.05656
   -90.00  0.00007  0.66559  0.06450
   -80.00  -0.05174  0.65866  0.07036
   -70.00  -0.10118  0.62779  0.07143
   -60.00  -0.14292  0.57722  0.06867
   -50.00  -0.17430  0.51351  0.06388
   -40.00  -0.19473  0.44474  0.05997
   -30.00  -0.20983  0.37963  0.06231
   -20.00  -0.23292  0.32623  0.08504
   -10.00  -0.09526  0.27776  0.03756
    -4.17  -0.02125  0.24955  -0.03992
    -3.17  0.01250  0.24952  -0.04051
    -2.12  0.04744  0.24949  -0.04098
    -1.08  0.08267  0.24949  -0.04152
    -0.05  0.11760  0.24952  -0.04181
    -0.01  0.11768  0.24952  -0.04181
     1.15  0.15895  0.24958  -0.04219
     2.30  0.19782  0.24964  -0.04252
     3.46  0.23682  0.24974  -0.04274
     4.61  0.27459  0.24982  -0.04269
     5.76  0.31115  0.24993  -0.04242
     6.91  0.34582  0.25012  -0.04179
     8.07  0.37428  0.25032  -0.04004
    10.69  0.38722  0.25407  -0.03113
    13.31  0.33891  0.28027  -0.02876
    15.93  0.32727  0.29650  -0.03128
    18.55  0.33474  0.31265  -0.03519
    21.17  0.33288  0.33294  -0.04157
    23.79  0.32294  0.34691  -0.04967
    26.41  0.31300  0.36089  -0.05777
    29.03  0.30306  0.37487  -0.06587
    31.65  0.29601  0.39084  -0.07184
    34.27  0.29044  0.40784  -0.07669
    36.90  0.28487  0.42484  -0.08155
    39.52  0.27931  0.44184  -0.08640
    42.14  0.27201  0.45963  -0.09056
    44.76  0.26436  0.47759  -0.09458
    47.38  0.25670  0.49555  -0.09860
    50.00  0.24905  0.51351  -0.10262
    60.00  0.20435  0.57722  -0.11633
    70.00  0.14454  0.62779  -0.12826
    80.00  0.07408  0.65866  -0.13806
    90.00  0.00007  0.66559  -0.14511
   100.00  -0.05174  0.65866  -0.15094
   110.00  -0.10118  0.62779  -0.15203
   120.00  -0.14292  0.57722  -0.14925
   130.00  -0.17430  0.51351  -0.14448
   140.00  -0.19473  0.44474  -0.14055
   150.00  -0.20983  0.37963  -0.14289
   160.00  -0.23352  0.32629  -0.16586
   170.00  -0.11657  0.29138  -0.14810
   180.00  0.00007  0.27921  -0.00007
EOT
