AeroDyn airfoil file.  Compatible with AeroDyn v13.0.
Interpolated thickness: 0.664

  1        Number of airfoil tables in this file
  9990     Reynolds number in millions.  For efficiency, make very large if only one table.
  0        Control setting
  10.7162  Stall angle (deg)
  -3.2765  Zero lift angle of attack (deg)
  3.10493  Cn slope for zero lift (dimensionless)
  0.758282 Cn at stall value for positive angle of attack
  -0.8     Cn at stall value for negative angle of attack
  -2.12    Angle of attack for minimum CD (deg)
  0.199905 Minimum CD value
  -180.00  0.00006  0.24429  -0.00006
  -170.00  0.17425  0.26246  0.17679
  -160.00  0.34888  0.31459  -0.06337
  -150.00  0.31351  0.39425  -0.02791
  -140.00  0.29096  0.49147  -0.00319
  -130.00  0.26046  0.59417  0.02072
  -120.00  0.21359  0.68932  0.04446
  -110.00  0.15126  0.76483  0.06648
  -100.00  0.07742  0.81094  0.08452
   -90.00  0.00006  0.82128  0.09637
   -80.00  -0.07731  0.81094  0.10512
   -70.00  -0.15114  0.76483  0.10671
   -60.00  -0.21348  0.68932  0.10260
   -50.00  -0.26034  0.59417  0.09544
   -40.00  -0.29085  0.49147  0.08960
   -30.00  -0.31340  0.39425  0.09310
   -20.00  -0.34788  0.31450  0.12705
   -10.00  -0.14230  0.24213  0.05614
    -4.17  -0.03178  0.19999  -0.05956
    -3.17  0.01862  0.19995  -0.06045
    -2.12  0.07079  0.19991  -0.06115
    -1.08  0.12340  0.19991  -0.06195
    -0.05  0.17557  0.19995  -0.06239
    -0.02  0.17569  0.19995  -0.06239
     1.16  0.23732  0.20005  -0.06296
     2.31  0.29537  0.20012  -0.06345
     3.47  0.35360  0.20027  -0.06378
     4.63  0.41000  0.20040  -0.06370
     5.78  0.46460  0.20056  -0.06330
     6.94  0.51637  0.20084  -0.06235
     8.10  0.55888  0.20114  -0.05974
    10.72  0.57820  0.20674  -0.04644
    13.34  0.50606  0.24587  -0.04290
    15.95  0.48867  0.27010  -0.04666
    18.57  0.49983  0.29423  -0.05251
    21.19  0.49705  0.32452  -0.06203
    23.81  0.48221  0.34539  -0.07413
    26.43  0.46737  0.36627  -0.08623
    29.05  0.45253  0.38714  -0.09832
    31.67  0.44199  0.41099  -0.10723
    34.29  0.43368  0.43637  -0.11448
    36.91  0.42536  0.46176  -0.12173
    39.52  0.41705  0.48715  -0.12898
    42.14  0.40615  0.51372  -0.13519
    44.76  0.39472  0.54054  -0.14119
    47.38  0.38330  0.56736  -0.14720
    50.00  0.37187  0.59417  -0.15320
    60.00  0.30511  0.68932  -0.17367
    70.00  0.21580  0.76483  -0.19149
    80.00  0.11058  0.81094  -0.20612
    90.00  0.00006  0.82128  -0.21664
   100.00  -0.07731  0.81094  -0.22535
   110.00  -0.15114  0.76483  -0.22699
   120.00  -0.21348  0.68932  -0.22283
   130.00  -0.26034  0.59417  -0.21571
   140.00  -0.29085  0.49147  -0.20983
   150.00  -0.31340  0.39425  -0.21333
   160.00  -0.34877  0.31459  -0.24763
   170.00  -0.17413  0.26246  -0.22111
   180.00  0.00006  0.24429  -0.00006
EOT
