AeroDyn airfoil file.  Compatible with AeroDyn v13.0.
Interpolated thickness: 0.561

  1        Number of airfoil tables in this file
  9990     Reynolds number in millions.  For efficiency, make very large if only one table.
  0        Control setting
  10.7441  Stall angle (deg)
  -3.38655 Zero lift angle of attack (deg)
  3.92933  Cn slope for zero lift (dimensionless)
  0.969079 Cn at stall value for positive angle of attack
  -0.8     Cn at stall value for negative angle of attack
  -2.12    Angle of attack for minimum CD (deg)
  0.153894 Minimum CD value
  -180.00  0.00004  0.21189  -0.00004
  -170.00  0.22763  0.23563  0.23101
  -160.00  0.45579  0.30373  -0.08276
  -150.00  0.40958  0.40782  -0.03643
  -140.00  0.38012  0.53484  -0.00414
  -130.00  0.34027  0.66903  0.02711
  -120.00  0.27904  0.79333  0.05813
  -110.00  0.19759  0.89199  0.08689
  -100.00  0.10113  0.95224  0.11046
   -90.00  0.00004  0.96576  0.12594
   -80.00  -0.10104  0.95224  0.13738
   -70.00  -0.19751  0.89199  0.13946
   -60.00  -0.27895  0.79333  0.13408
   -50.00  -0.34018  0.66903  0.12473
   -40.00  -0.38004  0.53484  0.11710
   -30.00  -0.40950  0.40782  0.12166
   -20.00  -0.45455  0.30362  0.16603
   -10.00  -0.18596  0.20906  0.07337
    -4.17  -0.04155  0.15401  -0.07779
    -3.17  0.02430  0.15395  -0.07895
    -2.12  0.09246  0.15389  -0.07987
    -1.08  0.16120  0.15389  -0.08091
    -0.05  0.22936  0.15395  -0.08149
    -0.03  0.22952  0.15395  -0.08149
     1.16  0.31004  0.15408  -0.08223
     2.32  0.38588  0.15418  -0.08287
     3.48  0.46196  0.15438  -0.08330
     4.64  0.53565  0.15454  -0.08319
     5.81  0.60699  0.15475  -0.08267
     6.97  0.67463  0.15512  -0.08144
     8.13  0.73017  0.15551  -0.07802
    10.74  0.75541  0.16283  -0.06065
    13.36  0.66116  0.21396  -0.05602
    15.98  0.63845  0.24561  -0.06093
    18.60  0.65302  0.27713  -0.06857
    21.21  0.64939  0.31671  -0.08101
    23.83  0.63000  0.34398  -0.09682
    26.45  0.61061  0.37125  -0.11263
    29.06  0.59122  0.39853  -0.12843
    31.68  0.57745  0.42968  -0.14007
    34.30  0.56659  0.46285  -0.14954
    36.91  0.55573  0.49602  -0.15901
    39.53  0.54487  0.52919  -0.16848
    42.15  0.53063  0.56391  -0.17660
    44.77  0.51570  0.59895  -0.18445
    47.38  0.50076  0.63399  -0.19229
    50.00  0.48583  0.66903  -0.20013
    60.00  0.39861  0.79333  -0.22688
    70.00  0.28193  0.89199  -0.25016
    80.00  0.14445  0.95224  -0.26928
    90.00  0.00004  0.96576  -0.28302
   100.00  -0.10104  0.95224  -0.29440
   110.00  -0.19751  0.89199  -0.29654
   120.00  -0.27895  0.79333  -0.29111
   130.00  -0.34018  0.66903  -0.28181
   140.00  -0.38004  0.53484  -0.27413
   150.00  -0.40950  0.40782  -0.27869
   160.00  -0.45571  0.30373  -0.32352
   170.00  -0.22754  0.23563  -0.28886
   180.00  0.00004  0.21189  -0.00004
EOT
