AeroDyn airfoil file.  Compatible with AeroDyn v13.0.
Interpolated thickness: 0.918

  1        Number of airfoil tables in this file
  9990     Reynolds number in millions.  For efficiency, make very large if only one table.
  0        Control setting
  10.6473  Stall angle (deg)
  -2.46707 Zero lift angle of attack (deg)
  1.01884  Cn slope for zero lift (dimensionless)
  0.233201 Cn at stall value for positive angle of attack
  -0.8     Cn at stall value for negative angle of attack
  -2.12    Angle of attack for minimum CD (deg)
  0.31337  Minimum CD value
  -180.00  0.00009  0.32420  -0.00009
  -170.00  0.04260  0.32864  0.04307
  -160.00  0.08522  0.34136  -0.01554
  -150.00  0.07659  0.36080  -0.00689
  -140.00  0.07108  0.38453  -0.00086
  -130.00  0.06364  0.40959  0.00498
  -120.00  0.05220  0.43281  0.01078
  -110.00  0.03699  0.45124  0.01615
  -100.00  0.01897  0.46249  0.02055
   -90.00  0.00009  0.46502  0.02344
   -80.00  -0.01879  0.46249  0.02558
   -70.00  -0.03681  0.45124  0.02597
   -60.00  -0.05202  0.43281  0.02496
   -50.00  -0.06346  0.40959  0.02322
   -40.00  -0.07091  0.38453  0.02179
   -30.00  -0.07641  0.36080  0.02264
   -20.00  -0.08482  0.34134  0.03093
   -10.00  -0.03465  0.32367  0.01362
    -4.17  -0.00768  0.31339  -0.01461
    -3.17  0.00462  0.31338  -0.01483
    -2.12  0.01735  0.31337  -0.01500
    -1.08  0.03019  0.31337  -0.01519
    -0.05  0.04292  0.31338  -0.01530
    -0.01  0.04295  0.31338  -0.01530
     1.15  0.05799  0.31340  -0.01544
     2.29  0.07216  0.31342  -0.01556
     3.44  0.08637  0.31346  -0.01564
     4.58  0.10013  0.31349  -0.01562
     5.73  0.11346  0.31353  -0.01552
     6.88  0.12609  0.31360  -0.01529
     8.02  0.13647  0.31367  -0.01466
    10.65  0.14118  0.31504  -0.01141
    13.27  0.12358  0.32459  -0.01054
    15.89  0.11934  0.33050  -0.01146
    18.52  0.12206  0.33639  -0.01289
    21.14  0.12138  0.34378  -0.01521
    23.76  0.11776  0.34888  -0.01817
    26.39  0.11414  0.35397  -0.02112
    29.01  0.11051  0.35906  -0.02407
    31.64  0.10794  0.36488  -0.02624
    34.26  0.10591  0.37108  -0.02801
    36.88  0.10388  0.37728  -0.02978
    39.51  0.10186  0.38347  -0.03155
    42.13  0.09920  0.38996  -0.03307
    44.75  0.09641  0.39650  -0.03453
    47.38  0.09362  0.40305  -0.03600
    50.00  0.09083  0.40959  -0.03746
    60.00  0.07454  0.43281  -0.04246
    70.00  0.05274  0.45124  -0.04681
    80.00  0.02706  0.46249  -0.05038
    90.00  0.00009  0.46502  -0.05295
   100.00  -0.01879  0.46249  -0.05507
   110.00  -0.03681  0.45124  -0.05547
   120.00  -0.05202  0.43281  -0.05446
   130.00  -0.06346  0.40959  -0.05272
   140.00  -0.07091  0.38453  -0.05129
   150.00  -0.07641  0.36080  -0.05214
   160.00  -0.08504  0.34136  -0.06051
   170.00  -0.04242  0.32864  -0.05404
   180.00  0.00009  0.32420  -0.00009
EOT
