AeroDyn airfoil file.  Compatible with AeroDyn v13.0.
Interpolated thickness: 0.797

  1        Number of airfoil tables in this file
  9990     Reynolds number in millions.  For efficiency, make very large if only one table.
  0        Control setting
  10.6801  Stall angle (deg)
  -3.10904 Zero lift angle of attack (deg)
  1.99858  Cn slope for zero lift (dimensionless)
  0.480989 Cn at stall value for positive angle of attack
  -0.8     Cn at stall value for negative angle of attack
  -2.12    Angle of attack for minimum CD (deg)
  0.259318 Minimum CD value
  -180.00  0.00007  0.28614  -0.00007
  -170.00  0.10531  0.29711  0.10677
  -160.00  0.21082  0.32860  -0.03832
  -150.00  0.18945  0.37674  -0.01690
  -140.00  0.17583  0.43547  -0.00197
  -130.00  0.15740  0.49752  0.01248
  -120.00  0.12909  0.55500  0.02682
  -110.00  0.09142  0.60062  0.04013
  -100.00  0.04682  0.62848  0.05102
   -90.00  0.00007  0.63473  0.05818
   -80.00  -0.04667  0.62848  0.06347
   -70.00  -0.09128  0.60062  0.06443
   -60.00  -0.12894  0.55500  0.06195
   -50.00  -0.15725  0.49752  0.05762
   -40.00  -0.17568  0.43547  0.05410
   -30.00  -0.18930  0.37674  0.05621
   -20.00  -0.21014  0.32855  0.07672
   -10.00  -0.08593  0.28483  0.03388
    -4.17  -0.01916  0.25937  -0.03603
    -3.17  0.01129  0.25934  -0.03656
    -2.12  0.04281  0.25932  -0.03699
    -1.08  0.07460  0.25932  -0.03747
    -0.05  0.10611  0.25934  -0.03774
    -0.01  0.10619  0.25934  -0.03774
     1.15  0.14342  0.25940  -0.03808
     2.30  0.17849  0.25945  -0.03837
     3.45  0.21367  0.25954  -0.03857
     4.61  0.24775  0.25962  -0.03852
     5.76  0.28074  0.25972  -0.03828
     6.91  0.31201  0.25988  -0.03771
     8.06  0.33769  0.26007  -0.03613
    10.68  0.34937  0.26345  -0.02810
    13.30  0.30579  0.28709  -0.02596
    15.92  0.29528  0.30173  -0.02823
    18.54  0.30202  0.31631  -0.03176
    21.17  0.30034  0.33460  -0.03752
    23.79  0.29138  0.34722  -0.04483
    26.41  0.28241  0.35983  -0.05213
    29.03  0.27344  0.37244  -0.05944
    31.65  0.26707  0.38685  -0.06482
    34.27  0.26205  0.40218  -0.06920
    36.89  0.25703  0.41752  -0.07358
    39.51  0.25201  0.43286  -0.07796
    42.14  0.24542  0.44891  -0.08172
    44.76  0.23852  0.46512  -0.08534
    47.38  0.23161  0.48132  -0.08897
    50.00  0.22471  0.49752  -0.09260
    60.00  0.18438  0.55500  -0.10497
    70.00  0.13042  0.60062  -0.11573
    80.00  0.06685  0.62848  -0.12457
    90.00  0.00007  0.63473  -0.13093
   100.00  -0.04667  0.62848  -0.13619
   110.00  -0.09128  0.60062  -0.13718
   120.00  -0.12894  0.55500  -0.13467
   130.00  -0.15725  0.49752  -0.13037
   140.00  -0.17568  0.43547  -0.12681
   150.00  -0.18930  0.37674  -0.12892
   160.00  -0.21067  0.32860  -0.14965
   170.00  -0.10517  0.29711  -0.13363
   180.00  0.00007  0.28614  -0.00007
EOT
