AeroDyn airfoil file.  Compatible with AeroDyn v13.0.
Interpolated thickness: 0.562

  1        Number of airfoil tables in this file
  9990     Reynolds number in millions.  For efficiency, make very large if only one table.
  0        Control setting
  10.7439  Stall angle (deg)
  -3.38566 Zero lift angle of attack (deg)
  3.92137  Cn slope for zero lift (dimensionless)
  0.967037 Cn at stall value for positive angle of attack
  -0.8     Cn at stall value for negative angle of attack
  -2.12    Angle of attack for minimum CD (deg)
  0.154341 Minimum CD value
  -180.00  0.00004  0.21220  -0.00004
  -170.00  0.22711  0.23589  0.23048
  -160.00  0.45476  0.30384  -0.08257
  -150.00  0.40865  0.40769  -0.03635
  -140.00  0.37926  0.53442  -0.00413
  -130.00  0.33949  0.66830  0.02704
  -120.00  0.27840  0.79232  0.05799
  -110.00  0.19714  0.89076  0.08669
  -100.00  0.10090  0.95087  0.11021
   -90.00  0.00004  0.96435  0.12565
   -80.00  -0.10081  0.95087  0.13706
   -70.00  -0.19706  0.89076  0.13914
   -60.00  -0.27832  0.79232  0.13378
   -50.00  -0.33941  0.66830  0.12444
   -40.00  -0.37917  0.53442  0.11683
   -30.00  -0.40857  0.40769  0.12139
   -20.00  -0.45352  0.30372  0.16565
   -10.00  -0.18553  0.20938  0.07321
    -4.17  -0.04145  0.15446  -0.07761
    -3.17  0.02425  0.15440  -0.07877
    -2.12  0.09225  0.15434  -0.07969
    -1.08  0.16083  0.15434  -0.08073
    -0.05  0.22884  0.15440  -0.08130
    -0.03  0.22900  0.15440  -0.08130
     1.16  0.30933  0.15452  -0.08204
     2.32  0.38500  0.15463  -0.08268
     3.48  0.46091  0.15482  -0.08311
     4.64  0.53443  0.15499  -0.08300
     5.80  0.60561  0.15520  -0.08248
     6.97  0.67309  0.15556  -0.08125
     8.13  0.72851  0.15595  -0.07784
    10.74  0.75369  0.16326  -0.06051
    13.36  0.65966  0.21427  -0.05589
    15.98  0.63699  0.24584  -0.06079
    18.60  0.65153  0.27730  -0.06841
    21.21  0.64791  0.31678  -0.08083
    23.83  0.62857  0.34399  -0.09660
    26.45  0.60922  0.37120  -0.11237
    29.06  0.58987  0.39841  -0.12814
    31.68  0.57613  0.42950  -0.13975
    34.30  0.56530  0.46260  -0.14920
    36.91  0.55446  0.49569  -0.15865
    39.53  0.54363  0.52878  -0.16810
    42.15  0.52942  0.56342  -0.17620
    44.77  0.51452  0.59838  -0.18403
    47.38  0.49962  0.63334  -0.19185
    50.00  0.48472  0.66830  -0.19968
    60.00  0.39770  0.79232  -0.22636
    70.00  0.28128  0.89076  -0.24959
    80.00  0.14412  0.95087  -0.26866
    90.00  0.00004  0.96435  -0.28238
   100.00  -0.10081  0.95087  -0.29373
   110.00  -0.19706  0.89076  -0.29587
   120.00  -0.27832  0.79232  -0.29045
   130.00  -0.33941  0.66830  -0.28117
   140.00  -0.37917  0.53442  -0.27350
   150.00  -0.40857  0.40769  -0.27806
   160.00  -0.45467  0.30384  -0.32278
   170.00  -0.22703  0.23589  -0.28820
   180.00  0.00004  0.21220  -0.00004
EOT
