AeroDyn airfoil file.  Compatible with AeroDyn v13.0.
Interpolated thickness: 0.438

  1        Number of airfoil tables in this file
  9990     Reynolds number in millions.  For efficiency, make very large if only one table.
  0        Control setting
  10.7775  Stall angle (deg)
  -3.48019 Zero lift angle of attack (deg)
  4.90174  Cn slope for zero lift (dimensionless)
  1.21977  Cn at stall value for positive angle of attack
  -0.8     Cn at stall value for negative angle of attack
  -2.12    Angle of attack for minimum CD (deg)
  0.0989487 Minimum CD value
  -180.00  0.00003  0.17319  -0.00003
  -170.00  0.29138  0.20358  0.29576
  -160.00  0.58347  0.29077  -0.10592
  -150.00  0.52431  0.42402  -0.04661
  -140.00  0.48660  0.58663  -0.00528
  -130.00  0.43558  0.75841  0.03473
  -120.00  0.35719  0.91755  0.07444
  -110.00  0.25293  1.04385  0.11126
  -100.00  0.12943  1.12098  0.14144
   -90.00  0.00003  1.13828  0.16125
   -80.00  -0.12938  1.12098  0.17589
   -70.00  -0.25287  1.04385  0.17856
   -60.00  -0.35714  0.91755  0.17168
   -50.00  -0.43552  0.75841  0.15970
   -40.00  -0.48655  0.58663  0.14994
   -30.00  -0.52426  0.42402  0.15578
   -20.00  -0.58194  0.29062  0.21257
   -10.00  -0.23808  0.16957  0.09396
    -4.17  -0.05322  0.09910  -0.09956
    -3.17  0.03108  0.09902  -0.10104
    -2.12  0.11834  0.09895  -0.10222
    -1.08  0.20634  0.09895  -0.10355
    -0.05  0.29360  0.09902  -0.10429
    -0.04  0.29380  0.09902  -0.10429
     1.17  0.39688  0.09918  -0.10524
     2.33  0.49397  0.09931  -0.10605
     3.50  0.59137  0.09957  -0.10661
     4.66  0.68570  0.09978  -0.10647
     5.83  0.77703  0.10005  -0.10581
     7.00  0.86362  0.10051  -0.10422
     8.16  0.93472  0.10102  -0.09985
    10.78  0.96703  0.11039  -0.07761
    13.39  0.84638  0.17584  -0.07168
    16.01  0.81730  0.21636  -0.07797
    18.62  0.83595  0.25672  -0.08775
    21.24  0.83131  0.30738  -0.10368
    23.85  0.80649  0.34229  -0.12392
    26.47  0.78166  0.37721  -0.14416
    29.08  0.75684  0.41212  -0.16439
    31.70  0.73921  0.45201  -0.17928
    34.31  0.72531  0.49447  -0.19141
    36.93  0.71140  0.53693  -0.20353
    39.54  0.69750  0.57940  -0.21566
    42.16  0.67927  0.62384  -0.22606
    44.77  0.66016  0.66870  -0.23610
    47.39  0.64104  0.71356  -0.24614
    50.00  0.62192  0.75841  -0.25618
    60.00  0.51026  0.91755  -0.29042
    70.00  0.36089  1.04385  -0.32022
    80.00  0.18489  1.12098  -0.34469
    90.00  0.00003  1.13828  -0.36229
   100.00  -0.12938  1.12098  -0.37686
   110.00  -0.25287  1.04385  -0.37960
   120.00  -0.35714  0.91755  -0.37265
   130.00  -0.43552  0.75841  -0.36074
   140.00  -0.48655  0.58663  -0.35091
   150.00  -0.52426  0.42402  -0.35675
   160.00  -0.58342  0.29077  -0.41413
   170.00  -0.29133  0.20358  -0.36976
   180.00  0.00003  0.17319  -0.00003
EOT
