AeroDyn airfoil file.  Compatible with AeroDyn v13.0.
Interpolated thickness: 0.924

  1        Number of airfoil tables in this file
  9990     Reynolds number in millions.  For efficiency, make very large if only one table.
  0        Control setting
  10.6456  Stall angle (deg)
  -2.40209 Zero lift angle of attack (deg)
  0.970024 Cn slope for zero lift (dimensionless)
  0.220899 Cn at stall value for positive angle of attack
  -0.8     Cn at stall value for negative angle of attack
  -2.12    Angle of attack for minimum CD (deg)
  0.31605  Minimum CD value
  -180.00  0.00009  0.32609  -0.00009
  -170.00  0.03949  0.33020  0.03991
  -160.00  0.07899  0.34199  -0.01441
  -150.00  0.07099  0.36001  -0.00639
  -140.00  0.06589  0.38200  -0.00080
  -130.00  0.05899  0.40523  0.00461
  -120.00  0.04839  0.42675  0.00998
  -110.00  0.03429  0.44383  0.01496
  -100.00  0.01759  0.45426  0.01904
   -90.00  0.00009  0.45660  0.02172
   -80.00  -0.01741  0.45426  0.02370
   -70.00  -0.03411  0.44383  0.02406
   -60.00  -0.04821  0.42675  0.02313
   -50.00  -0.05881  0.40523  0.02151
   -40.00  -0.06571  0.38200  0.02019
   -30.00  -0.07081  0.36001  0.02098
   -20.00  -0.07861  0.34197  0.02866
   -10.00  -0.03211  0.32560  0.01262
    -4.17  -0.00711  0.31607  -0.01355
    -3.17  0.00429  0.31606  -0.01375
    -2.12  0.01609  0.31605  -0.01391
    -1.08  0.02799  0.31605  -0.01409
    -0.05  0.03979  0.31606  -0.01419
    -0.00  0.03982  0.31606  -0.01419
     1.15  0.05376  0.31608  -0.01432
     2.29  0.06689  0.31610  -0.01443
     3.44  0.08006  0.31613  -0.01450
     4.58  0.09282  0.31616  -0.01448
     5.73  0.10517  0.31620  -0.01439
     6.88  0.11688  0.31626  -0.01418
     8.02  0.12649  0.31633  -0.01359
    10.65  0.13086  0.31760  -0.01058
    13.27  0.11454  0.32645  -0.00978
    15.89  0.11061  0.33193  -0.01063
    18.52  0.11313  0.33739  -0.01195
    21.14  0.11251  0.34424  -0.01411
    23.76  0.10915  0.34896  -0.01684
    26.39  0.10579  0.35368  -0.01958
    29.01  0.10243  0.35840  -0.02232
    31.63  0.10005  0.36380  -0.02433
    34.26  0.09817  0.36954  -0.02597
    36.88  0.09629  0.37528  -0.02761
    39.51  0.09441  0.38102  -0.02925
    42.13  0.09195  0.38703  -0.03066
    44.75  0.08936  0.39310  -0.03201
    47.38  0.08678  0.39916  -0.03337
    50.00  0.08419  0.40523  -0.03473
    60.00  0.06909  0.42675  -0.03936
    70.00  0.04889  0.44383  -0.04339
    80.00  0.02509  0.45426  -0.04670
    90.00  0.00009  0.45660  -0.04908
   100.00  -0.01741  0.45426  -0.05105
   110.00  -0.03411  0.44383  -0.05142
   120.00  -0.04821  0.42675  -0.05048
   130.00  -0.05881  0.40523  -0.04887
   140.00  -0.06571  0.38200  -0.04754
   150.00  -0.07081  0.36001  -0.04833
   160.00  -0.07881  0.34199  -0.05609
   170.00  -0.03931  0.33020  -0.05009
   180.00  0.00009  0.32609  -0.00009
EOT
