AeroDyn airfoil file.  Compatible with AeroDyn v13.0.
Interpolated thickness: 0.215

  1        Number of airfoil tables in this file
  9990     Reynolds number in millions.  For efficiency, make very large if only one table.
  0        Control setting
  8.89079  Stall angle (deg)
  -4.22202 Zero lift angle of attack (deg)
  6.38314  Cn slope for zero lift (dimensionless)
  1.46086  Cn at stall value for positive angle of attack
  -0.8     Cn at stall value for negative angle of attack
  -2.02    Angle of attack for minimum CD (deg)
  0.00917857 Minimum CD value
  -180.00  0.00000  0.13951  0.00000
  -170.00  0.39650  0.18014  0.40000
  -160.00  0.79400  0.29676  -0.14120
  -150.00  0.70971  0.47485  -0.06261
  -140.00  0.65871  0.69189  -0.00703
  -130.00  0.58936  0.92066  0.04675
  -120.00  0.48336  1.13179  0.09977
  -110.00  0.34200  1.29809  0.14836
  -100.00  0.17500  1.39756  0.18755
   -90.00  0.00000  1.41600  0.21239
   -80.00  -0.17500  1.39756  0.23265
   -70.00  -0.34200  1.29809  0.23679
   -60.00  -0.48336  1.13179  0.22791
   -50.00  -0.58936  0.92066  0.21193
   -40.00  -0.65871  0.69189  0.19851
   -30.00  -0.70971  0.47485  0.20545
   -20.00  -0.79236  0.29652  0.28111
   -10.00  -0.30129  0.10554  0.10017
    -6.04  -0.12391  0.02999  -0.08464
    -5.04  -0.05205  0.01845  -0.11724
    -4.09  0.01565  0.00923  -0.14331
    -3.02  0.13498  0.00920  -0.14507
    -2.02  0.24521  0.00918  -0.14628
    -1.03  0.35554  0.00922  -0.14750
    -0.03  0.46646  0.00935  -0.14847
     1.12  0.59606  0.00957  -0.14922
     2.24  0.72022  0.00984  -0.15007
     3.36  0.84366  0.01022  -0.15072
     4.48  0.96160  0.01055  -0.14993
     5.61  1.07568  0.01108  -0.14842
     6.73  1.17436  0.01169  -0.14418
     8.89  1.26646  0.01853  -0.12491
    11.05  1.23656  0.05471  -0.11056
    13.22  1.25730  0.09625  -0.10969
    15.38  1.25767  0.13938  -0.11062
    17.55  1.20636  0.21451  -0.12324
    19.71  1.17297  0.27958  -0.13646
    21.87  1.11927  0.33015  -0.16247
    24.04  1.09114  0.36875  -0.18453
    26.20  1.06301  0.40734  -0.20658
    28.36  1.03488  0.44594  -0.22864
    30.53  1.01110  0.48755  -0.24746
    32.69  0.99400  0.53356  -0.26174
    34.85  0.97834  0.58048  -0.27510
    37.02  0.96268  0.62740  -0.28847
    39.18  0.94702  0.67433  -0.30183
    41.35  0.92769  0.72286  -0.31377
    43.51  0.90611  0.77231  -0.32485
    45.67  0.88453  0.82176  -0.33594
    47.84  0.86294  0.87121  -0.34703
    50.00  0.84136  0.92066  -0.35811
    60.00  0.69036  1.13179  -0.40341
    70.00  0.48836  1.29809  -0.44239
    80.00  0.25000  1.39756  -0.47378
    90.00  0.00000  1.41600  -0.49561
   100.00  -0.17500  1.39756  -0.51581
   110.00  -0.34200  1.29809  -0.52001
   120.00  -0.48336  1.13179  -0.51108
   130.00  -0.58936  0.92066  -0.49516
   140.00  -0.65871  0.69189  -0.48168
   150.00  -0.70971  0.47485  -0.48861
   160.00  -0.79400  0.29676  -0.56489
   170.00  -0.39650  0.18014  -0.50000
   180.00  0.00000  0.13951  0.00000
EOT
