AeroDyn airfoil file.  Compatible with AeroDyn v13.0.
Interpolated thickness: 0.49

  1        Number of airfoil tables in this file
  9990     Reynolds number in millions.  For efficiency, make very large if only one table.
  0        Control setting
  10.7634  Stall angle (deg)
  -3.44403 Zero lift angle of attack (deg)
  4.49223  Cn slope for zero lift (dimensionless)
  1.11392  Cn at stall value for positive angle of attack
  -0.8     Cn at stall value for negative angle of attack
  -2.12    Angle of attack for minimum CD (deg)
  0.122178 Minimum CD value
  -180.00  0.00003  0.18955  -0.00003
  -170.00  0.26443  0.21713  0.26839
  -160.00  0.52949  0.29625  -0.09613
  -150.00  0.47581  0.41717  -0.04231
  -140.00  0.44159  0.56474  -0.00480
  -130.00  0.39528  0.72062  0.03151
  -120.00  0.32415  0.86503  0.06754
  -110.00  0.22953  0.97965  0.10096
  -100.00  0.11747  1.04964  0.12834
   -90.00  0.00003  1.06534  0.14632
   -80.00  -0.11740  1.04964  0.15961
   -70.00  -0.22947  0.97965  0.16203
   -60.00  -0.32409  0.86503  0.15579
   -50.00  -0.39522  0.72062  0.14491
   -40.00  -0.44152  0.56474  0.13606
   -30.00  -0.47574  0.41717  0.14136
   -20.00  -0.52809  0.29611  0.19289
   -10.00  -0.21605  0.18626  0.08526
    -4.17  -0.04828  0.12231  -0.09036
    -3.17  0.02822  0.12224  -0.09170
    -2.12  0.10740  0.12218  -0.09277
    -1.08  0.18726  0.12218  -0.09398
    -0.05  0.26644  0.12224  -0.09465
    -0.03  0.26662  0.12225  -0.09465
     1.16  0.36017  0.12239  -0.09551
     2.33  0.44827  0.12251  -0.09625
     3.49  0.53666  0.12274  -0.09675
     4.66  0.62227  0.12293  -0.09663
     5.82  0.70515  0.12318  -0.09603
     6.98  0.78372  0.12360  -0.09459
     8.15  0.84824  0.12406  -0.09063
    10.76  0.87757  0.13256  -0.07044
    13.38  0.76808  0.19195  -0.06506
    15.99  0.74169  0.22872  -0.07077
    18.61  0.75861  0.26535  -0.07964
    21.23  0.75441  0.31132  -0.09410
    23.84  0.73188  0.34300  -0.11246
    26.46  0.70935  0.37469  -0.13083
    29.07  0.68682  0.40637  -0.14919
    31.69  0.67082  0.44257  -0.16270
    34.31  0.65821  0.48110  -0.17371
    36.92  0.64559  0.51964  -0.18471
    39.54  0.63297  0.55817  -0.19572
    42.15  0.61643  0.59851  -0.20515
    44.77  0.59908  0.63921  -0.21426
    47.38  0.58174  0.67992  -0.22337
    50.00  0.56439  0.72062  -0.23249
    60.00  0.46306  0.86503  -0.26356
    70.00  0.32751  0.97965  -0.29060
    80.00  0.16780  1.04964  -0.31281
    90.00  0.00003  1.06534  -0.32878
   100.00  -0.11740  1.04964  -0.34200
   110.00  -0.22947  0.97965  -0.34448
   120.00  -0.32409  0.86503  -0.33818
   130.00  -0.39522  0.72062  -0.32737
   140.00  -0.44152  0.56474  -0.31845
   150.00  -0.47574  0.41717  -0.32375
   160.00  -0.52943  0.29625  -0.37582
   170.00  -0.26436  0.21713  -0.33556
   180.00  0.00003  0.18955  -0.00003
EOT
