AeroDyn airfoil file.  Compatible with AeroDyn v13.0.
Interpolated thickness: 0.643

  1        Number of airfoil tables in this file
  9990     Reynolds number in millions.  For efficiency, make very large if only one table.
  0        Control setting
  10.7219  Stall angle (deg)
  -3.30248 Zero lift angle of attack (deg)
  3.27377  Cn slope for zero lift (dimensionless)
  0.801325 Cn at stall value for positive angle of attack
  -0.8     Cn at stall value for negative angle of attack
  -2.12    Angle of attack for minimum CD (deg)
  0.190524 Minimum CD value
  -180.00  0.00005  0.23769  -0.00005
  -170.00  0.18513  0.25699  0.18784
  -160.00  0.37068  0.31237  -0.06732
  -150.00  0.33310  0.39702  -0.02965
  -140.00  0.30914  0.50032  -0.00339
  -130.00  0.27673  0.60944  0.02202
  -120.00  0.22694  0.71052  0.04725
  -110.00  0.16070  0.79075  0.07064
  -100.00  0.08226  0.83975  0.08981
   -90.00  0.00005  0.85074  0.10240
   -80.00  -0.08215  0.83975  0.11170
   -70.00  -0.16060  0.79075  0.11339
   -60.00  -0.22683  0.71052  0.10902
   -50.00  -0.27662  0.60944  0.10141
   -40.00  -0.30903  0.50032  0.09521
   -30.00  -0.33299  0.39702  0.09892
   -20.00  -0.36963  0.31228  0.13500
   -10.00  -0.15120  0.23538  0.05965
    -4.17  -0.03377  0.19062  -0.06328
    -3.17  0.01978  0.19057  -0.06422
    -2.12  0.07521  0.19052  -0.06497
    -1.08  0.13111  0.19052  -0.06582
    -0.05  0.18654  0.19057  -0.06629
    -0.02  0.18667  0.19057  -0.06629
     1.16  0.25215  0.19067  -0.06689
     2.32  0.31382  0.19076  -0.06741
     3.47  0.37569  0.19092  -0.06776
     4.63  0.43562  0.19105  -0.06767
     5.79  0.49363  0.19122  -0.06725
     6.95  0.54864  0.19152  -0.06624
     8.10  0.59380  0.19184  -0.06347
    10.72  0.61433  0.19779  -0.04934
    13.34  0.53768  0.23937  -0.04557
    15.96  0.51921  0.26511  -0.04957
    18.58  0.53106  0.29074  -0.05578
    21.20  0.52811  0.32292  -0.06590
    23.81  0.51234  0.34510  -0.07875
    26.43  0.49657  0.36728  -0.09161
    29.05  0.48080  0.38946  -0.10446
    31.67  0.46961  0.41480  -0.11392
    34.29  0.46077  0.44177  -0.12162
    36.91  0.45194  0.46875  -0.12933
    39.53  0.44311  0.49572  -0.13703
    42.14  0.43153  0.52395  -0.14363
    44.76  0.41939  0.55245  -0.15001
    47.38  0.40725  0.58094  -0.15639
    50.00  0.39510  0.60944  -0.16277
    60.00  0.32417  0.71052  -0.18452
    70.00  0.22928  0.79075  -0.20345
    80.00  0.11749  0.83975  -0.21900
    90.00  0.00005  0.85074  -0.23018
   100.00  -0.08215  0.83975  -0.23943
   110.00  -0.16060  0.79075  -0.24117
   120.00  -0.22683  0.71052  -0.23675
   130.00  -0.27662  0.60944  -0.22919
   140.00  -0.30903  0.50032  -0.22294
   150.00  -0.33299  0.39702  -0.22665
   160.00  -0.37057  0.31237  -0.26311
   170.00  -0.18502  0.25699  -0.23492
   180.00  0.00005  0.23769  -0.00005
EOT
