AeroDyn airfoil file.  Compatible with AeroDyn v13.0.
Interpolated thickness: 0.471

  1        Number of airfoil tables in this file
  9990     Reynolds number in millions.  For efficiency, make very large if only one table.
  0        Control setting
  10.7686  Stall angle (deg)
  -3.45774 Zero lift angle of attack (deg)
  4.64212  Cn slope for zero lift (dimensionless)
  1.15262  Cn at stall value for positive angle of attack
  -0.8     Cn at stall value for negative angle of attack
  -2.12    Angle of attack for minimum CD (deg)
  0.11369  Minimum CD value
  -180.00  0.00003  0.18357  -0.00003
  -170.00  0.27428  0.21218  0.27839
  -160.00  0.54922  0.29425  -0.09971
  -150.00  0.49353  0.41967  -0.04388
  -140.00  0.45803  0.57274  -0.00497
  -130.00  0.41001  0.73443  0.03268
  -120.00  0.33622  0.88422  0.07006
  -110.00  0.23808  1.00311  0.10473
  -100.00  0.12184  1.07570  0.13312
   -90.00  0.00003  1.09199  0.15178
   -80.00  -0.12178  1.07570  0.16556
   -70.00  -0.23802  1.00311  0.16807
   -60.00  -0.33616  0.88422  0.16159
   -50.00  -0.40994  0.73443  0.15032
   -40.00  -0.45797  0.57274  0.14113
   -30.00  -0.49347  0.41967  0.14663
   -20.00  -0.54776  0.29411  0.20008
   -10.00  -0.22410  0.18016  0.08844
    -4.17  -0.05009  0.11383  -0.09372
    -3.17  0.02926  0.11376  -0.09511
    -2.12  0.11140  0.11369  -0.09622
    -1.08  0.19423  0.11369  -0.09748
    -0.05  0.27636  0.11376  -0.09817
    -0.03  0.27655  0.11376  -0.09818
     1.16  0.37358  0.11391  -0.09907
     2.33  0.46497  0.11403  -0.09983
     3.49  0.55665  0.11427  -0.10036
     4.66  0.64545  0.11447  -0.10022
     5.82  0.73141  0.11473  -0.09960
     6.99  0.81292  0.11516  -0.09811
     8.15  0.87984  0.11564  -0.09400
    10.77  0.91026  0.12446  -0.07306
    13.38  0.79669  0.18606  -0.06748
    16.00  0.76931  0.22421  -0.07340
    18.61  0.78687  0.26219  -0.08261
    21.23  0.78251  0.30988  -0.09760
    23.85  0.75914  0.34274  -0.11665
    26.46  0.73577  0.37561  -0.13570
    29.08  0.71240  0.40847  -0.15474
    31.69  0.69581  0.44602  -0.16876
    34.31  0.68272  0.48599  -0.18017
    36.92  0.66964  0.52596  -0.19159
    39.54  0.65655  0.56593  -0.20300
    42.15  0.63939  0.60776  -0.21279
    44.77  0.62140  0.64999  -0.22224
    47.38  0.60340  0.69221  -0.23169
    50.00  0.58541  0.73443  -0.24114
    60.00  0.48031  0.88422  -0.27337
    70.00  0.33970  1.00311  -0.30142
    80.00  0.17404  1.07570  -0.32446
    90.00  0.00003  1.09199  -0.34103
   100.00  -0.12178  1.07570  -0.35474
   110.00  -0.23802  1.00311  -0.35731
   120.00  -0.33616  0.88422  -0.35077
   130.00  -0.40994  0.73443  -0.33956
   140.00  -0.45797  0.57274  -0.33031
   150.00  -0.49347  0.41967  -0.33581
   160.00  -0.54916  0.29425  -0.38982
   170.00  -0.27421  0.21218  -0.34806
   180.00  0.00003  0.18357  -0.00003
EOT
