AeroDyn airfoil file.  Compatible with AeroDyn v13.0.
Interpolated thickness: 0.907

  1        Number of airfoil tables in this file
  9990     Reynolds number in millions.  For efficiency, make very large if only one table.
  0        Control setting
  10.6502  Stall angle (deg)
  -2.57147 Zero lift angle of attack (deg)
  1.10829  Cn slope for zero lift (dimensionless)
  0.255751 Cn at stall value for positive angle of attack
  -0.8     Cn at stall value for negative angle of attack
  -2.12    Angle of attack for minimum CD (deg)
  0.308456 Minimum CD value
  -180.00  0.00009  0.32074  -0.00009
  -170.00  0.04830  0.32577  0.04886
  -160.00  0.09664  0.34020  -0.01761
  -150.00  0.08685  0.36225  -0.00780
  -140.00  0.08061  0.38916  -0.00096
  -130.00  0.07216  0.41758  0.00566
  -120.00  0.05919  0.44392  0.01223
  -110.00  0.04194  0.46482  0.01833
  -100.00  0.02150  0.47758  0.02332
   -90.00  0.00009  0.48044  0.02660
   -80.00  -0.02133  0.47758  0.02902
   -70.00  -0.04176  0.46482  0.02946
   -60.00  -0.05902  0.44392  0.02833
   -50.00  -0.07199  0.41758  0.02634
   -40.00  -0.08043  0.38916  0.02473
   -30.00  -0.08667  0.36225  0.02570
   -20.00  -0.09622  0.34017  0.03509
   -10.00  -0.03931  0.32014  0.01547
    -4.17  -0.00872  0.30848  -0.01656
    -3.17  0.00523  0.30847  -0.01680
    -2.12  0.01967  0.30846  -0.01700
    -1.08  0.03423  0.30846  -0.01722
    -0.05  0.04867  0.30847  -0.01734
    -0.01  0.04870  0.30847  -0.01734
     1.15  0.06576  0.30849  -0.01750
     2.29  0.08183  0.30852  -0.01763
     3.44  0.09794  0.30856  -0.01773
     4.59  0.11355  0.30859  -0.01770
     5.73  0.12867  0.30864  -0.01759
     6.88  0.14300  0.30871  -0.01733
     8.03  0.15476  0.30880  -0.01661
    10.65  0.16011  0.31035  -0.01293
    13.27  0.14014  0.32118  -0.01195
    15.90  0.13533  0.32788  -0.01299
    18.52  0.13842  0.33456  -0.01461
    21.14  0.13765  0.34295  -0.01724
    23.77  0.13354  0.34872  -0.02059
    26.39  0.12943  0.35450  -0.02394
    29.01  0.12532  0.36028  -0.02729
    31.64  0.12241  0.36688  -0.02975
    34.26  0.12011  0.37391  -0.03176
    36.88  0.11781  0.38093  -0.03376
    39.51  0.11551  0.38796  -0.03577
    42.13  0.11249  0.39532  -0.03749
    44.75  0.10933  0.40274  -0.03915
    47.38  0.10616  0.41016  -0.04081
    50.00  0.10300  0.41758  -0.04248
    60.00  0.08452  0.44392  -0.04814
    70.00  0.05980  0.46482  -0.05307
    80.00  0.03068  0.47758  -0.05712
    90.00  0.00009  0.48044  -0.06004
   100.00  -0.02133  0.47758  -0.06245
   110.00  -0.04176  0.46482  -0.06290
   120.00  -0.05902  0.44392  -0.06175
   130.00  -0.07199  0.41758  -0.05978
   140.00  -0.08043  0.38916  -0.05815
   150.00  -0.08667  0.36225  -0.05912
   160.00  -0.09646  0.34020  -0.06861
   170.00  -0.04813  0.32577  -0.06127
   180.00  0.00009  0.32074  -0.00009
EOT
